time,V4,V2,III,I,V6,V1
0.0,0.3262096030247762,-0.03940423559035585,0.11303622474253824,-0.019272881399462732,-0.01919077431193209,0.09583421144183718
0.002,0.2824873985673725,-0.03955953547091686,0.12196157377158191,-0.012404977953873108,-0.01390124313476974,0.10183910021177156
0.004,0.2603980141073244,-0.041336740227647044,0.10825822806289376,-0.015111852770601184,-0.013967625125879929,0.09837602629099744
0.006,0.22542587683196935,-0.030886467342362053,0.08691114530652012,-0.007827594579130777,-0.011745710552796862,0.09853839554197412
0.008,0.19872092018496457,-0.023010580580119382,0.06807545815237372,-0.015361593324824764,-0.0045111818080200575,0.09895764168605634
0.01,0.17050580119912398,-0.013665258289514568,0.09411699395271084,-0.004475790764176303,-0.0015139761765558947,0.09005978315853416
0.012,0.11877534167904827,0.014403746167954836,0.0982804606731767,-0.0154758323932353,-0.004210955677210849,0.09437419208350979
0.014,0.1160775518836407,-0.0013090340265117623,0.05546080222646468,-0.021239160597516453,-0.0029791815236160143,0.10219324680909292
0.016,0.07303238601687745,0.0019697220727302816,0.04842595108025477,-0.02520000833068242,-0.004328851324483563,0.10106205748015998
0.018,0.03582021135578926,-0.011597030158647508,0.0460710839204593,-0.011579878649685146,-0.013888432864619844,0.11069649184301006
0.02,0.022335847451608208,-0.013081070695889171,0.04670444332862189,-0.015838456652954296,-0.01037162410794496,0.110334267186928
0.022,-0.005705598805538282,-0.0077433538949523715,0.06259675260765704,-0.016251575052272347,-0.002574547666685616,0.11067681724787296
0.024,-0.022245039748269392,-0.016545728166680134,0.04719738537917239,-0.014285411287423638,-0.002357219508921247,0.1124574903827915
0.026,-0.030127649293756997,-0.007018913037630393,0.04960526411661582,-0.019337830304791,0.001652289508594829,0.11056986491317748
0.028,-0.043223043546193864,-0.00491645723041046,0.034542406929177955,-0.012172804684788008,-0.000916200819861,0.11212295379982871
0.03,-0.06161810310166255,0.006735303018160768,0.03627840006236919,-0.009327532946085262,-0.005132968340433507,0.10752265228309689
0.032,-0.0847674731718804,0.018118572292618755,0.025138795858860235,-0.0323080071741337,0.002545382861539612,0.1091731092756189
0.034,-0.10657191204687394,0.0171228471498681,0.020618302714677107,-0.03391710284806946,-0.004546721410846044,0.11128241060419226
0.036,-0.11672311042609305,0.007716978543842102,0.02669204959022607,-0.03051089828176575,-0.010764676824405175,0.11069301346047802
0.038,-0.14129536612286434,0.0022391840402883833,0.012161905017551962,-0.03697603716741184,-0.02196664197950563,0.1208303543379657
0.04,-0.14889691986108994,-0.006328795929929869,-0.011026814499586916,-0.03295004199763777,-0.026550395294948653,0.12346899184988747
0.042,-0.1608998683230619,-0.0096690688496926,0.007239915645018194,-0.025561338190940787,-0.027888645148821167,0.12571955560826886
0.044,-0.1767723770846304,-0.0070611104420476,0.0051582972821554805,-0.025283887409505993,-0.0332130459469082,0.13538256091743006
0.046,-0.16753217545636237,0.0010690380301442656,-0.002634255704675368,-0.03924443186201178,-0.020086842927995886,0.13137389617016285
0.048,-0.1697701728687641,0.006449229567729343,0.006923868904407953,-0.04023620731639263,-0.02604562617686819,0.1284506131932955
0.05,-0.20842108600980147,0.008865746212470186,0.007577517345209134,-0.026581093333353067,-0.029893297840622404,0.1384544152953558
0.052,-0.21818722208924207,0.012620845106283009,-0.0025105854650331536,-0.0421280980685099,-0.026519655814817977,0.12908319488038789
0.054,-0.23091951249668105,0.015342865664741712,-0.0047154668054497275,-0.05745828062468165,-0.023692102377396197,0.1262936181557538
0.056,-0.2348434391193615,0.00873734708339611,-0.010607224672782254,-0.05624901622291558,-0.03391992939072267,0.12395223626229541
0.058,-0.23171361237624008,0.0017834699358390681,0.0054881136538563295,-0.044628327036126604,-0.03203680385321798,0.12632837351801277
0.06,-0.23845925383659572,-0.013492822234095973,-0.009720950848390681,-0.03834685028354082,-0.034284280857182325,0.13138425743556786
0.062,-0.24083951264923165,-0.027913088474256418,-0.022109851494271752,-0.03389612522877977,-0.03275332398694741,0.133503107110799
0.064,-0.24393549574261655,-0.02501959570767718,-0.015381493481182472,-0.031387481602221386,-0.038736582097115765,0.1349244958148119
0.066,-0.25082016999185863,-0.017435070667464483,-0.0049897866576889185,-0.036197459464441716,-0.025541527744548376,0.14057928640332182
0.068,-0.2404544627786321,-0.008977646123242412,-0.015763190459171437,-0.042334980325899725,-0.01890855471753881,0.1340784006838753
0.07,-0.24478837187561012,0.0034565266177720632,0.0061997617450017355,-0.03552995321350401,-0.02454334108615501,0.1358298991922527
0.072,-0.24633002851143568,0.011760052955528693,0.008217749817095141,-0.03988795297196339,-0.02715780927711359,0.13036577309089112
0.074,-0.24424351323720794,0.008180014770949203,0.01644040031225627,-0.039042090674285004,-0.029021404705053263,0.12728359418791588
0.076,-0.2508666802702356,-0.004872184693932514,0.0012927607125494177,-0.04781268864146973,-0.028412698117898417,0.12387161171290584
0.078,-0.24317493263638215,-0.008620773265395766,0.0016785970068461176,-0.048509290529661145,-0.03526294417579801,0.12548266009434736
0.08,-0.24863751133731588,-0.009025921464728926,-0.014104248816349103,-0.053240528168518826,-0.026654817764906063,0.13696459835005312
0.082,-0.24366411917675823,-0.010342084539957904,-0.00844487853090096,-0.04514647940982798,-0.03368126429856121,0.140265787964544
0.084,-0.24083971740479657,-0.006003389328165376,0.014121929918420732,-0.0503787739280372,-0.02708756547510825,0.13892130798562558
0.086,-0.23177900501453733,0.00019055504630953796,0.010450203006540643,-0.039062002246730364,-0.027900836468510593,0.1336317510512896
0.088,-0.22173700170909127,0.002115901615127514,-0.002666728974103224,-0.04319503558562217,-0.02220545908564494,0.13721689711021343
0.09,-0.2154427371949304,-0.005336914159591289,-0.02496210016362933,-0.03597402725383306,-0.030650720198593672,0.13976268529580985
0.092,-0.229876175649507,0.010193667243596952,-0.02743848562059116,-0.03921843728702714,-0.03352419988240826,0.13688447213219648
0.094,-0.2215125955621832,0.009412000652787883,-0.022238845521746327,-0.04522078731912636,-0.030556720117515535,0.13362501987846714
0.096,-0.22347212433627978,-0.0022146715135149863,-0.019383756153119373,-0.051401362525834576,-0.031614022162294086,0.13136962182392822
0.098,-0.24361627608866435,0.0013628276570472001,0.003292106756722772,-0.05544763781878659,-0.033025014404797284,0.13781313405079407
0.1,-0.25035018497448125,0.006438622019406266,0.009466082770656295,-0.06282805560668561,-0.028641821160683117,0.13488902937069197
0.102,-0.24589649370708505,-0.007625551362927244,0.0010535978301480277,-0.04461951195872147,-0.028694017214343323,0.1368315859233714
0.104,-0.2435562324876927,-0.014734027922039455,0.002010764769234078,-0.04346848142866574,-0.026980427243638704,0.1377811782412667
0.106,-0.2334083159403472,-0.017382410444730927,-0.007871393204783559,-0.03769746727520846,-0.024045697738963086,0.13277982306543776
0.108,-0.22192412670951728,-0.010512842835075418,-0.018179618529800653,-0.05466488793301044,-0.0028718808447135325,0.12878868957803338
0.11,-0.20831316136740674,-0.004608725471895726,9.160169202132725e-05,-0.05438613694188752,-0.006433643007789952,0.11846641585952772
0.112,-0.22372407964210986,-0.005319047324501565,-0.010125645330761398,-0.05947634005176197,-0.009998732440356562,0.11907892220262752
0.114,-0.22454770041154973,-0.009781587984561097,-0.0260321995902532,-0.05066863048740675,-0.0179122067779315,0.12120721212066768
0.116,-0.22207657617337925,-0.018260667528130794,-0.01395197716511752,-0.05160149728592109,-0.01850535539478781,0.12109046326801953
0.118,-0.23644883541905634,-0.019299393880206482,-0.024876850217992467,-0.05403405309932309,-0.0230237311237267,0.12375260810071632
0.12,-0.22753492593342842,-0.02992663928996773,-0.013944720967737415,-0.03838590190185628,-0.02842204795881253,0.12661134324061227
0.122,-0.21123247870520556,-0.021188773813865268,-0.01538593029773582,-0.05040888847333603,-0.02861860670959829,0.12972542594710515
0.124,-0.21627684855617185,-0.018109773356680646,-0.029889006992680968,-0.06002333377772911,-0.02639809749575855,0.126602257906187
0.126,-0.2107064347339224,-0.010028136581329774,-0.013416744234016374,-0.05692378782483321,-0.032283107549243156,0.12350442344881293
0.128,-0.2023225214535823,-0.008162597651261686,-0.016726101061993147,-0.04677788549705513,-0.03650289751013493,0.11758342014792221
0.13,-0.19734047574903998,-0.00397266715440636,-0.021248859992939826,-0.05109744652151771,-0.03403757215836365,0.12118249512860524
0.132,-0.19481330635710506,0.007964081654772496,-0.011203386503787207,-0.05419015390856891,-0.03468877370838574,0.11549870761890868
0.134,-0.21530514481622273,0.01047707322898522,0.0036379359774421772,-0.04050387864083704,-0.03927440199387303,0.11828649110064132
0.136,-0.18821682838242523,0.004447671796052604,-0.011630333317176082,-0.05122902416976697,-0.037471431808198855,0.11129696608032277
0.138,-0.18000261052536873,-0.00011043169625699424,-0.02511304990521191,-0.055950712894350475,-0.040808646662531506,0.09711983682277378
0.14,-0.17959126209747964,-0.018203438872654545,-0.03690403286084762,-0.05346722795830241,-0.03822781443499698,0.10716444137354673
0.142,-0.17490656840811764,-0.01562995067956349,-0.021867431588424992,-0.05535246850734909,-0.03182252267951872,0.10284788277155354
0.144,-0.18196218821473165,-0.013388171598836762,-0.02091015227855512,-0.059422959270720443,-0.027299385042472563,0.10460959359357906
0.146,-0.15918972006845408,-0.011479651473396031,-0.03793111634997829,-0.054130716379451924,-0.030916056127040733,0.10314213123525724
0.148,-0.1515367528683057,-0.004862889164228961,-0.025921296148060078,-0.049043540834337596,-0.023542721926619697,0.09707923220350999
0.15,-0.17065042310447434,0.004070162273728124,-0.03256212816969547,-0.05411509741963347,-0.030210001792274642,0.1044017960626802
0.152,-0.1638353700888376,0.00771978408717244,-0.027787687615696686,-0.0537213772473746,-0.03140233710774147,0.09773690697564613
0.154,-0.1676466828716679,0.011260774346336207,-0.001032257556723414,-0.05622505528747429,-0.03132959086535497,0.0872239479020966
0.156,-0.17572404577868384,0.010968144880211434,0.009218931962987799,-0.05877002757768585,-0.03158016491903494,0.08784517040422057
0.158,-0.16672900341200222,0.00784770691482857,-0.008069799383522109,-0.07488696877434181,-0.02588503482756492,0.0822402964889112
0.16,-0.1717416420649498,-0.0037760536380684415,-0.004735444041326127,-0.06600681794499366,-0.02869908275714665,0.09209719525893538
0.162,-0.18016079044302838,-0.004117381858523745,0.007885067324875749,-0.06370860616914732,-0.02979504541240611,0.09507844668134878
0.164,-0.1887353517417735,-0.000600459280842585,0.00581417462053387,-0.07791434659896744,-0.026326012121678316,0.08456590020719021
0.166,-0.18331388865910644,-0.004954237881923465,-0.015003215071200532,-0.06997179953845067,-0.03168564523847153,0.07563518076201851
0.168,-0.1739580693289009,0.007336357413438313,0.0012990332319992187,-0.07549880944606013,-0.029500206050907564,0.07710222353957691
0.17,-0.18040259314566048,0.017718282824561622,0.008946842795005865,-0.07828342068440575,-0.02554326769462647,0.07474793434249995
0.172,-0.189580524211983,0.0146085003399384,-0.014255091494407061,-0.07435815863647448,-0.02827382840267047,0.0796392243054009
0.174,-0.17823065398386476,0.016048792079064757,-0.011192052923044657,-0.060882263770134046,-0.03974706880972205,0.07975762249098695
0.176,-0.17985508263115366,0.017798828437000654,-0.007897305661919967,-0.06991124059574079,-0.036694187829756426,0.07880178314627875
0.178,-0.17272238267235152,0.010108450986694606,-0.018158724187898073,-0.06417187683031206,-0.03559379246667526,0.08642979635882841
0.18,-0.16572525481451897,-0.006498407904199874,-0.03141150023489094,-0.05461487058906278,-0.03210294157090114,0.09236241463738862
0.182,-0.18914422597719346,-0.008554992966789424,-0.012999660782524217,-0.047069868036144984,-0.033324811021177424,0.10904838617763993
0.184,-0.1857600388188093,-0.006667536269160483,0.008301091622748377,-0.04682159496121354,-0.028537579748718914,0.09568254022069507
0.186,-0.16634581331625228,-0.010198018575124975,0.0076302108932780315,-0.03952594970377667,-0.0336435829667121,0.0964576361604293
0.188,-0.16666698498244265,0.003262955146715583,0.02153753710418333,-0.05057077162230799,-0.03227651355310615,0.09055977825830672
0.19,-0.1730210522716265,0.01837660967788,0.021575541797385838,-0.06672678605415117,-0.029271902846789075,0.08631958568725293
0.192,-0.18515421191284556,0.008071602041368533,0.004600590650788066,-0.06224049813721627,-0.03463004939396693,0.08955351120765032
0.194,-0.18208955263940774,-0.0014248347850853973,-0.007533750955539045,-0.0535489007385744,-0.038066554432708365,0.08479575649834917
0.196,-0.1918583952197911,0.005254700875227169,-0.002049371999504266,-0.0688167561604153,-0.035246474913467406,0.08603243708835462
0.198,-0.21479736633259114,0.0038370518927911346,0.006267510075544891,-0.07474601768435084,-0.035835288186816014,0.0895797321572362
0.2,-0.20446822561093628,-0.003814493229531335,-0.0026919932068633964,-0.07178667644529889,-0.03182025574356292,0.08785712502764194
0.202,-0.21075738641152195,0.002184609148163585,-0.0010262889939077,-0.06564483131907073,-0.038768479185000065,0.0919138120612209
0.204,-0.19855180357081248,-0.002101682991630499,-0.0019035020262796753,-0.05713075653429128,-0.03671200793695223,0.09402181653406827
0.206,-0.18944806504045683,-0.0003843924581361559,-0.004136728172602542,-0.04934091472144358,-0.040344779818091925,0.08812356628386026
0.208,-0.19552609194528897,0.0037293912246349733,-0.007540907989236095,-0.04261639157213161,-0.04295974492078815,0.09630037252530468
0.21,-0.20153143760783526,0.02461156736882001,0.0020786309248613456,-0.04796484743231735,-0.040216707155970255,0.08961476995987983
0.212,-0.19064266899098656,0.03166442975671915,-0.008489947592310686,-0.05863580460611497,-0.038952520610204475,0.08855485630034299
0.214,-0.18614263847499002,0.030536462094215105,-0.019522272102055416,-0.056764723805301155,-0.03866324456928623,0.08781131378887831
0.216,-0.18735422078019104,0.030468740173535132,-0.011007347734205468,-0.06877070078603165,-0.039880956810288797,0.08975124781180316
0.218,-0.2080116882364107,0.025552301434871378,-0.0048573360062246496,-0.07219767421748613,-0.03603945876443395,0.08494583692102003
0.22,-0.19846469594231025,0.009700195920007265,-0.013694177045225317,-0.052625301519392806,-0.04222184883860727,0.08690620438520996
0.222,-0.18554805281632858,0.008311725470970916,-0.01628247121724168,-0.05633973710775843,-0.03199663047864118,0.07429833682118972
0.224,-0.20198190410577407,0.006460820451370005,-0.008087282428707246,-0.059197414554363136,-0.03497147473105121,0.08084921545598937
0.226,-0.20431443554616363,0.0023234502999424176,-0.005305350320685045,-0.050572597087316075,-0.0344764825252289,0.07946937093438411
0.228,-0.1983791261478229,0.0004887081484249276,-0.013571114604570044,-0.04668964010982895,-0.03129593139913956,0.08173969708979843
0.23,-0.22322242554918906,0.014220769761509171,-0.012818340782743127,-0.060686620259127404,-0.03122233093032057,0.0855226310324887
0.232,-0.23640720533302645,0.012805384929722517,-0.01585957044320385,-0.060407471600515496,-0.030821565095100038,0.08726578391883984
0.234,-0.2211478643669199,0.006258376523788497,-0.025280822194064984,-0.05042344392852292,-0.03290717945852586,0.08241381451793854
0.236,-0.2194011098133434,0.003466602963632494,-0.0132518139578261,-0.055109483777353266,-0.03458486956336016,0.06992519725115547
0.238,-0.22544967547592001,-0.0008552937695742817,-0.004795964912332069,-0.056306104673678956,-0.03561010944469347,0.05814980411520881
0.24,-0.23385822084509503,-0.022088246028859098,-0.012898700873734528,-0.04177479951170377,-0.037422492890979084,0.05006703985785002
0.242,-0.24582627494724948,-0.020616514334493834,-0.005847315309214784,-0.05042648109122696,-0.03178291097518687,0.04557975019287878
0.244,-0.2342593121459429,-0.026482057116822905,-0.020429518313964726,-0.054664961411107986,-0.02439447594977869,0.049678435935003304
0.246,-0.237437175657674,-0.021620104377413598,-0.023426212192959903,-0.04746601168028398,-0.023204076250769142,0.0388191888196235
0.248,-0.23344779683564856,-0.020247736546397766,-0.026851593635829826,-0.03688595378601648,-0.02908378538601177,0.04722215373630168
0.25,-0.24678325731607798,-0.020505901512589013,-0.035761807763730606,-0.04245772268921423,-0.021680838617068092,0.038485594468236115
0.252,-0.24400156200555329,-0.017520113973752395,-0.02764985793052106,-0.039953643744708396,-0.02901143097702139,0.040522522525410366
0.254,-0.24280092474519033,-0.006055206345743512,-0.028593977973868034,-0.04166370863493935,-0.029200093390300965,0.027105913962293338
0.256,-0.24434990392755482,-0.012748793057456388,-0.02987238706836858,-0.033698340436421184,-0.026180788544476762,0.0319176784407307
0.258,-0.24128703223373527,-0.008073594725975193,-0.020407040256489775,-0.02323852836621489,-0.0333904224975501,0.03595683328221316
0.26,-0.23351326508215128,-0.013576889989147673,-0.022431747384055952,-0.02674374538815765,-0.026244926633804545,0.033167973162887776
0.262,-0.2390806677037385,-0.019382207531252388,-0.03559030312082649,-0.025373775911972363,-0.025343875772289498,0.04222341075604369
0.264,-0.2248688859690397,-0.023413749424201363,-0.04684753343144659,-0.026362616900882797,-0.024555275017509717,0.04051583972127753
0.266,-0.2191716815008112,-0.020641174597178874,-0.05338617778346106,-0.030879503750411538,-0.02102855315614169,0.04016479052271073
0.268,-0.23297118276987352,-0.011788078567441386,-0.027984870687842726,-0.03178871829526724,-0.015702571994263084,0.0397223460853701
0.27,-0.24204470447810286,-0.010504912150615053,-0.02164752662105132,-0.028685661092151343,-0.01659398358378969,0.03719448156972998
0.272,-0.2562210715792162,-0.004506883763928882,-0.02205053820958368,-0.03357793005759761,-0.016151138864877325,0.030999540809216127
0.274,-0.2584887960741501,-0.005788392323640988,-0.03168204360889751,-0.03171371205164814,-0.022298990018384923,0.028329429290895547
0.276,-0.2534912278583125,-0.01468331210652194,-0.04880621403443812,-0.0342707024988211,-0.031526208922337755,0.028910662378350636
0.278,-0.27704788771262967,-0.015630849113540193,-0.03489704591887151,-0.038469444008844264,-0.020521562313968823,0.025674882578195418
0.28,-0.2611433503014506,-0.03270262351992897,-0.031324024393234874,-0.0218678843445879,-0.034562317547158494,0.02890026599552513
0.282,-0.26787648480942083,-0.023467029192676982,-0.031779065144758735,-0.02380595340932697,-0.030283379801582723,0.03725651737552309
0.284,-0.257866682075944,-0.014579456384162356,-0.016680765808558106,-0.032777456161150346,-0.023704840385104693,0.03359324953718124
0.286,-0.24297514072166412,-0.00448055859422158,-0.023233250566994077,-0.02750755612993065,-0.022307531149104234,0.030486375374955625
0.288,-0.2493156243301688,-0.0012785138600800638,-0.024918604935758596,-0.010893013707512196,-0.029911800509613146,0.03688562520181656
0.29,-0.2483127574370496,0.009373927557958418,-0.025006919781822626,-0.016212414638154905,-0.03530348177577605,0.028854292181342132
0.292,-0.23158933071235768,0.006525643783571181,-0.030684438846619592,-0.009778251125141609,-0.03270132847921253,0.020263253787583993
0.294,-0.23769893195426064,0.0075119750160521715,-0.055278198194690965,-0.000966222680946026,-0.036727577183588565,0.015357737158398622
0.296,-0.24196216323797254,0.008576675230590967,-0.041336645787632124,-0.005955883580697129,-0.030978112298233777,0.013587043931798585
0.298,-0.23575515400707317,0.0020238200992008662,-0.046934159111344576,-0.002927445322222735,-0.04313566048249942,0.015447283678635836
0.3,-0.24475309458994507,-0.007113762214361298,-0.046110695131771164,-0.0013600100689419431,-0.03794102058431574,0.017537800436338062
0.302,-0.2358436907534199,2.815983936038893e-05,-0.0289144005106276,-0.012839427792976936,-0.03235966738732458,0.010653402366977737
0.304,-0.24278435733592038,-0.0012797664582049205,-0.036309725904907345,-0.017496977988350978,-0.032059547759789815,0.017555049746441613
0.306,-0.2291576786378735,0.004022378631965233,-0.03567990294576418,-0.01703234816933702,-0.027017217120313176,0.01351475563625452
0.308,-0.2501222661635162,0.015455689829129904,-0.030693735021852103,-0.01953701759838179,-0.035020064371341725,0.017190548104588022
0.31,-0.26190863380176316,0.015565977781774518,-0.022124629356101773,-0.007319172311518903,-0.0434742527304626,0.014422023543434932
0.312,-0.2530141287860969,0.02208235155825082,-0.027768457783430654,-0.024877551973028097,-0.03399459966240187,0.013609415005162282
0.314,-0.26411810987977663,0.016515320964178654,-0.020991062452005466,-0.019591756808141483,-0.030058656430909818,0.008057226831378977
0.316,-0.263909280352276,0.01620084880198381,-0.018234202663889035,-0.01117443902550593,-0.03465181004833641,0.005340536433328993
0.318,-0.26800077579092607,0.017738743487955847,-0.0086370977527839,-0.01784783351633693,-0.03310277991686483,0.010517494588881812
0.32,-0.2588016709074329,0.0010262675459824743,-0.026159481914286242,-0.011076037886636978,-0.031971942157800214,0.0155061429343346
0.322,-0.2642671347153342,-0.0022544661701643463,-0.01770965035980567,0.0026523851763934504,-0.04016411202452146,0.013750572063666566
0.324,-0.2699917243086066,0.0005284914478010159,-0.01814787039755297,0.002601526299742766,-0.03694797686422923,0.01612071044499504
0.326,-0.2828811824480465,-0.007041282164972583,-0.028595610077700978,0.0021700944290656047,-0.03137930127126759,0.01902328901667462
0.328,-0.26905859374425845,-0.004771445647833237,-0.033878928593274835,0.0014657985450987332,-0.0253027786448408,0.005084446642552547
0.33,-0.26813605708574134,0.0019293050713834314,-0.04648584752784536,-0.00433918990192743,-0.023311194860917917,0.009287285623761408
0.332,-0.26661006642744006,0.0030232291054713627,-0.04790970186042925,-0.0016684275402022771,-0.02573976449844867,0.0044355217802310555
0.334,-0.2582020901169679,-0.0001523663663490716,-0.05321310867346534,-0.007474635208851387,-0.023455657453951333,-0.006037256961930744
0.336,-0.26335997228772956,0.0015904590738501803,-0.05124502953114808,-0.01596864480132092,-0.025387971128755772,-0.003457955836367277
0.338,-0.2566152598369958,-0.006302714785693246,-0.045061416041922195,-0.01918551956864011,-0.016263428654402636,-0.004741720726622867
0.34,-0.26730702317926613,-0.013398963182874313,-0.04893026193681374,-0.005629376184540029,-0.023852355253683764,0.005911107190563658
0.342,-0.259774467367979,-0.014848944950163668,-0.0491876290823471,-0.0031406750737209403,-0.029454488380925247,0.00722409885452878
0.344,-0.24413859328798354,-0.012889393963672027,-0.04860308908976633,-0.010505232624112563,-0.023484470922960157,0.005155968902567986
0.346,-0.2535154952117726,-0.010610475914603632,-0.04021671759068433,0.0033393379009974034,-0.028242050304785073,0.010506416948861055
0.348,-0.2498206532462792,-0.00574525988608042,-0.05430642330518149,-0.002895999300557213,-0.020282479338171566,0.009762347112906179
0.35,-0.23982166828056128,0.006986973136301434,-0.0550812959067094,0.003984363690434962,-0.02099950942706512,-0.0012019028605815187
0.352,-0.2509940979630503,0.006679305617712647,-0.05872691397882637,0.00614642992450838,-0.019834923605819378,0.0021629587178969086
0.354,-0.258485068897972,0.012184491601071882,-0.03204987567297609,0.00815819084186219,-0.016859763155339543,-0.0017591772528853823
0.356,-0.2435951710928764,0.0032980539704564904,-0.041224035821307396,0.011432285805597353,-0.024718892705209616,-0.013507810299385189
0.358,-0.24732610852352999,0.004259629689549164,-0.04503166429087612,0.013555149210827573,-0.02719342110382772,-0.0034617199002685306
0.36,-0.24137766947601344,0.00031693080772675797,-0.049900367480879865,0.012318520674163167,-0.025310467947390048,-0.009419302029315235
0.362,-0.243283729499955,-0.004664288125172435,-0.06652474950526245,0.007951137915100544,-0.02264984014023593,-0.0026760707709571133
0.364,-0.23780600842270985,0.005935584637158776,-0.0464238901091863,0.0015044139432257707,-0.020697364952822248,-0.0008818284691678795
0.366,-0.22199574641212078,0.014207704292102686,-0.04885608649792409,-0.0008580562138018821,-0.01898304177886445,-0.010105426357315294
0.368,-0.22802785521442562,0.011258807568803915,-0.04339772273347011,0.016849702542549475,-0.028553058117645396,-0.004833882750977932
0.37,-0.24515984723261597,0.01892334789510583,-0.031270744263258154,0.006497041877599719,-0.015284891411736777,-0.006447517263504416
0.372,-0.23841018685527646,0.02098005481902061,-0.02153421435657506,0.012457086839254772,-0.012341259342496223,-0.005809028817261619
0.374,-0.23033110826951841,0.022374225487338882,-0.027038287856085218,0.012714575004678326,-0.010512820326827621,-0.011709980363868368
0.376,-0.22796674865998587,0.01592625103867003,-0.035671485729097036,0.010113201848965627,-0.011453353400929608,-0.013928811863973272
0.378,-0.2181997385355752,5.326338091254147e-05,-0.06782763599661948,0.006109317715002846,-0.006612815509552603,-0.0038367187067842503
0.38,-0.22405081615582118,-0.003446083275664746,-0.07157967336159045,0.00802818360901803,-0.010189066486519639,0.00014650101793374455
0.382,-0.2289944771541172,0.002781562845725137,-0.0664344397346212,0.010675596617697873,-0.020573467867810814,-0.010479881111914223
0.384,-0.24315156163128337,-0.0011189049798164983,-0.05660827164034495,0.005371131433462951,-0.016763824370248138,-0.007166424967002865
0.386,-0.24342424760974518,-0.0009243004566509643,-0.057485510893222694,0.009602719785009711,-0.012075022418572468,-0.012924165687482461
0.388,-0.2575094426030541,-0.009273774750279412,-0.04628196248060235,0.018739927172318475,-0.013667419976010531,-0.009211996646847376
0.39,-0.2632855636631217,0.00426261887876133,-0.03658456229917013,0.013329108230226863,-0.010892106255295571,-0.011686396363682069
0.392,-0.26287740201487664,0.008941602746422108,-0.0382997304728412,0.00028477093093761774,-0.00928711067498629,-0.010851048943189834
0.394,-0.2621395108821815,-0.0003243334924835626,-0.05209785195860848,0.00435020916479214,-0.014345482209284556,-0.008952938096504378
0.396,-0.27258474275311345,0.004717590060383705,-0.05458799328666849,-0.009906505066796504,-0.01637337774067719,-0.01579797081745274
0.398,-0.2790096716702637,0.00256685367341122,-0.03451504432839168,-0.013662418295707896,-0.00876677307020524,-0.019195638233346128
0.4,-0.2751095404353159,-0.0002854673815302292,-0.04497712137767115,-0.005948532157320669,-0.011505368767318568,-0.023096517732747675
0.402,-0.26041902182822824,-0.0028773537167322634,-0.04252507236326494,-0.007456770423206432,-0.006212196410703759,-0.02487092344745115
0.404,-0.25699269772174294,-0.0013513290969037793,-0.04329718319673601,-0.004987628391180167,-0.009038664239231393,-0.02520212776972684
0.406,-0.24947776165393992,-0.004275080615407993,-0.0433248877327265,0.017644484418314975,-0.014948157620147026,-0.025233350079442905
0.408,-0.2597900080639431,-0.0019405372833518483,-0.06141855551150261,0.009494559662429925,-0.01475217629400987,-0.02377391082036654
0.41,-0.2658368959359921,0.0019621447426224695,-0.05743419718687597,0.018708957402417892,-0.017175055922933728,-0.019692298858152504
0.412,-0.24860685061286508,0.012688630707522738,-0.05612325276800024,0.006009409993811571,-0.00982641242716023,-0.028931671359193476
0.414,-0.2451707728352613,0.009492074006241462,-0.06105113163364344,0.01663215300464003,-0.01265354783656191,-0.030555408020322413
0.416,-0.2498400297444216,0.008967066448850034,-0.07669167699273984,0.018452342125136974,-0.025065843355799127,-0.02745721845709207
0.418,-0.24489431528533193,0.017690477464816893,-0.07145099337022566,0.016972238409626222,-0.018772375254655634,-0.02737985828760106
0.42,-0.24643532786719136,0.02356144476433722,-0.048582141435123696,0.021173904673770682,-0.0217147979896779,-0.02130164540456189
0.422,-0.24905448663690333,0.026286045413549442,-0.03113725180944773,0.021837544071469248,-0.02040478526888125,-0.019639984637054648
0.424,-0.22601247090587356,0.021751747147987152,-0.026653756607921828,0.024441901193325177,-0.022108372158025524,-0.028125780022810607
0.426,-0.21632611937092722,0.019707976688117083,-0.04611098935032498,0.03461839316102399,-0.013288725918406255,-0.027279519254352697
0.428,-0.2089322331880397,0.015178608692748565,-0.05550934786175784,0.039058131208446506,-0.01875130834601904,-0.03172273733085513
0.43,-0.22807212960094694,0.022815952980480322,-0.05507995953385957,0.03255677178944606,-0.010391550157741462,-0.03219072864246006
0.432,-0.23151019960017127,0.01711657721081938,-0.060535340838165724,0.03374472634462167,-0.016833283334491966,-0.02730316666953485
0.434,-0.21836578429154788,0.025112246135734324,-0.06511149664094396,0.020185040728115788,-0.009568763061172107,-0.036030858266150725
0.436,-0.23839912931681398,0.014982444083712411,-0.04439806085161267,0.0373399435687004,-0.026732161667546637,-0.03137605128367146
0.438,-0.23174354156171065,0.005281166877624741,-0.05856937125931367,0.04955056779305914,-0.023774720642890983,-0.03034777820576427
0.44,-0.21609385054809155,0.01400977803280815,-0.0709117542588249,0.0428647765638044,-0.026094697106010704,-0.039902239172071294
0.442,-0.21655525064086,0.01695405140773921,-0.07333364375829231,0.030889765090180633,-0.026022143458451247,-0.0379423090791567
0.444,-0.20646830797890584,0.015433543574448592,-0.05637769794296917,0.0400053874830996,-0.028153939989607968,-0.045820953248922026
0.446,-0.19695835256648267,0.009722551689604718,-0.08222578276094265,0.05180110742113168,-0.027768446399124572,-0.040281641109745095
0.448,-0.21819125584072396,0.020626470739081908,-0.06585993457384895,0.04850066146967943,-0.032947867360231434,-0.03903382680960543
0.45,-0.22868020139087383,0.033800820394632496,-0.048808306370441173,0.031263566491168154,-0.022497741979662082,-0.04649322134606239
0.452,-0.23390219223336026,0.0309288083241864,-0.057654208858537816,0.0341382311592599,-0.017147460698394543,-0.04753498119586597
0.454,-0.21644717147828954,0.018930324423906107,-0.07208937518542892,0.04695112079129233,-0.021565359565271423,-0.04827959506868008
0.456,-0.22914372029253863,0.02614132201922726,-0.057445854513030636,0.04571448567299197,-0.029284543888637184,-0.05143891485003852
0.458,-0.23440591270413397,0.024751108599772018,-0.04813775224687639,0.05810358101438339,-0.037869314419574494,-0.04975597213877578
0.46,-0.2231342457213186,0.01961882436993239,-0.05688457989009828,0.04856038737269589,-0.028731408176512745,-0.05387247628972679
0.462,-0.21358122753687372,0.002611256577593676,-0.07975582943184208,0.05888307901316416,-0.0376313696312149,-0.05785325128924677
0.464,-0.23178055289577013,0.003439946462244174,-0.08926293208392053,0.06698356391842973,-0.040658796171045,-0.055777644920301274
0.466,-0.210752004487818,0.006544898021245199,-0.09226968481354474,0.06345584501829044,-0.0383535079547323,-0.057372536166937105
0.468,-0.20742996631394164,0.008854566380018398,-0.08575048032334581,0.058721540235964945,-0.0339431512435668,-0.06254523129188816
0.47,-0.2147511087942629,0.021181653463093756,-0.08354660053593153,0.04409422114378808,-0.034914814617878,-0.06078584757130633
0.472,-0.228859517094763,0.025337142684294107,-0.06325467177215433,0.036437497307953065,-0.029734346445389033,-0.06072160016581091
0.474,-0.2339479788607958,0.02661329081152296,-0.06234977620573508,0.03161954577973969,-0.028845319705950296,-0.05497870258101534
0.476,-0.23801570520358886,0.02887451002610779,-0.0625795001479798,0.03138064049727575,-0.02755345879026345,-0.05761342664939773
0.478,-0.23630934603415624,0.02383793141159166,-0.0694591605200111,0.028847963624845444,-0.02951035409770485,-0.055903479643748935
0.48,-0.2404347177579493,0.013516986447666652,-0.07770224800714616,0.04256091226559775,-0.03174182383023077,-0.05425821468171819
0.482,-0.22843691799699853,0.014679456867544141,-0.0693332775571515,0.03599135813623379,-0.024419266639913093,-0.05703838515532586
0.484,-0.23017486748720195,0.003131590948205051,-0.07651938180925098,0.04664227885011458,-0.029470599225803674,-0.05045291992266944
0.486,-0.236102149747903,0.008406245300689686,-0.062159751832088626,0.05214950667988011,-0.025727733561503985,-0.04504638740578619
0.488,-0.22963217559992893,0.009939556953004542,-0.050196243089517444,0.06709729846746741,-0.02917918922157613,-0.04278477336565262
0.49,-0.22672429743571007,0.016153797008079444,-0.05252096948529195,0.05341666884639261,-0.026513854071203626,-0.04715302460339848
0.492,-0.22346701417785597,0.026454675104266853,-0.04560484208159107,0.043698376373953796,-0.01967710427350663,-0.054683065168962555
0.494,-0.22004247538047764,0.03303374240769609,-0.054723051142963226,0.046826155789542134,-0.020641078759644584,-0.051174656669802754
0.496,-0.22812506584811393,0.017713662888548958,-0.05497363446973629,0.043639829182615684,-0.02199256632742733,-0.0476989800417791
0.498,-0.2184835889384833,0.01504357441319756,-0.038709151030072705,0.05266174809848207,-0.025462909754439354,-0.05545225457854036
0.5,-0.231520413321457,0.016424790121545678,-0.04117574575570715,0.05122457671547925,-0.02578690326484268,-0.04659577815659755
0.502,-0.22232963649026088,0.016247064414775584,-0.05504723294967616,0.04460665994611276,-0.027575255905767194,-0.04742450720043887
0.504,-0.2164223975402542,0.011862428161228329,-0.05421714527921079,0.045654078425112356,-0.027781441258069896,-0.046190513451412764
0.506,-0.23374626545736396,0.003406218794179291,-0.0716444895935843,0.05440993750656612,-0.03348070976005549,-0.045627585123077796
0.508,-0.23947749477663963,0.010563733470244098,-0.08726492712649092,0.03167936577704448,-0.02141485690462719,-0.05935452893507099
0.51,-0.23502105063003695,0.01149761714338147,-0.0872217871172613,0.03123303293511166,-0.025364143306404716,-0.05067693099418303
0.512,-0.24127674423441786,0.0206106923538449,-0.061014317242179865,0.030663799035356883,-0.023538403851300134,-0.04885900799371029
0.514,-0.23100430372043512,0.02314668431759091,-0.07461389459970239,0.03022908447628111,-0.02089049678786321,-0.0498949905601502
0.516,-0.233584258483269,0.01718724019299705,-0.07361375562188784,0.03841559665071662,-0.030706671460945547,-0.04703261669915552
0.518,-0.23956136068246855,0.009684836808761223,-0.06961448201729484,0.04476923342220853,-0.027414620787039136,-0.04867713137965942
0.52,-0.21930013624619543,0.01000681425049071,-0.05534710049444436,0.04767140173597077,-0.028438138682572986,-0.051910650170155566
0.522,-0.2207322685035334,0.006949174622131539,-0.04388416718245664,0.04476991112297687,-0.028717319160214593,-0.04692646380804619
0.524,-0.21838745058717704,0.012111303748200665,-0.01818973140908317,0.04620720366015876,-0.029135247817643217,-0.05020789729088003
0.526,-0.22311711118428829,0.010615838433308293,-0.0245325498155158,0.056823582729865804,-0.028794169320277174,-0.04993886686664538
0.528,-0.22848063619420583,0.015533094115386632,-0.03336002591862484,0.03966642248000393,-0.02131290857949241,-0.05546611707637108
0.53,-0.20900307436587529,0.013837783615966383,-0.03901599209824423,0.04408728864515964,-0.01999231965037101,-0.0630707956690244
0.532,-0.20847378993093257,0.01519101899053681,-0.0454664764783591,0.04895522025707877,-0.025072287562418572,-0.057606473923344226
0.534,-0.19913991866522923,0.010109965927608188,-0.03885986663593939,0.04529302469112066,-0.026866870144397672,-0.060161598759301785
0.536,-0.18821745522849212,0.02254735791179674,-0.022454368768348772,0.03616926433604543,-0.0212882042714141,-0.06163254131417911
0.538,-0.17333532329752133,0.018852863748992366,-0.01110454032966461,0.0551785053976605,-0.023131415315256667,-0.06039531241492402
0.54,-0.14268348865918098,0.0077990950739663285,-0.022806364068481817,0.043487221298583165,-0.01943530083940938,-0.06716209894196268
0.542,-0.12492113030099744,0.00859820884690445,-0.01685250386985168,0.05590266648540073,-0.02219441246468131,-0.07228645601469788
0.544,-0.12318119256822077,0.006867686873379933,0.009669049150167527,0.06357128130253926,-0.019113699557539814,-0.08383023818014357
0.546,-0.10866284903773835,0.0034089043406673636,0.0008069305112741326,0.06310993657097387,-0.022501538389301825,-0.0774054585877932
0.548,-0.106365285238721,0.002088791292253011,-0.02275788948587424,0.05456654101420673,-0.02029667577157884,-0.07450532029491376
0.55,-0.09096533313069938,-0.0006265704232204908,-0.03149314456585284,0.06111119992483932,-0.023859268482409518,-0.07534367505574274
0.552,-0.09939740640721033,0.013162232473372486,0.0006438498906015629,0.05140686712855451,-0.019082492285079886,-0.07047822418790453
0.554,-0.11930178956649981,0.01920748359888108,0.014345931191516264,0.04396637762347048,-0.02237303325922514,-0.06588237285007634
0.556,-0.11278558524687633,0.025363771583124153,0.014165261326336649,0.03335223642921801,-0.0169309686658172,-0.07038399621763199
0.558,-0.09682384331121009,0.00821595180511388,0.0005249476641519264,0.02919195247909231,-0.02012511794870563,-0.061714512890233456
0.56,-0.08312497675072374,0.004900862878040566,0.015915937976973018,0.026783847040904002,-0.01325550445595749,-0.052864200922341696
0.562,-0.06544482302462316,0.010795983585837651,0.041248603784151766,0.02412488698250609,-0.008649619429017616,-0.06512134125197545
0.564,-0.07484806901544364,0.017018020434887204,0.04103734448329504,0.03292702317957215,-0.009188229970642238,-0.056637078618100134
0.566,-0.05633182533360282,0.022096148755420587,0.057809555576268074,0.042897683195803823,-0.011854863352901422,-0.05505654569285844
0.568,-0.07146721491679638,0.04258906945381564,0.057017146019207494,0.041059226956687164,-0.0054241395369791666,-0.06230622823334471
0.57,-0.09887602447254841,0.05748584004788039,0.0473533584505638,0.04364492134054771,-0.010572754653650549,-0.05112324279335348
0.572,-0.09750066378889528,0.06864986925075171,0.04892649078329812,0.04202059505797573,-0.0128802934437977,-0.05631517755993816
0.574,-0.12067510624334588,0.05981180353228635,0.01961263143756612,0.03108571445393139,-0.010105651287763993,-0.04246411006346037
0.576,-0.11429687285689702,0.0605059350434906,0.011578413282129434,0.029522884937688572,-0.0151167747117345,-0.04224744992751998
0.578,-0.10968121034082054,0.06508508044809846,0.001843239455432401,0.017117810960937722,-0.012478687999391424,-0.04458037007549709
0.58,-0.13169974378346583,0.06632447587943285,-0.01816552448628587,0.009450627031236997,-0.013437087540391227,-0.03230666211852074
0.582,-0.13739687952199192,0.059179405974914806,-0.02646732764568583,0.009582322545395065,-0.01394107188598648,-0.04036587578708487
0.584,-0.1475088030964252,0.04894637072483952,-0.024774480685810518,0.014730349246025662,-0.01863381432275857,-0.036886171454611934
0.586,-0.14799450474597173,0.03812025338464858,-0.05050572673952667,0.01613510785767285,-0.017290764870287197,-0.038798136582003026
0.588,-0.13568940009615907,0.03902903485573038,-0.03893239100557185,0.016536597626891487,-0.012893051217492148,-0.043523843630570595
0.59,-0.1346398681384629,0.052994323308552964,-0.042559280387339415,0.0022921069040079036,-0.014718996636214277,-0.045994472888292115
0.592,-0.14252653289060088,0.049699432674576306,-0.0519215844719185,0.008017141162175261,-0.007019090622192304,-0.06422677226710861
0.594,-0.15510392183743374,0.053977784340078876,-0.03282938184458265,0.0005925112112527485,-0.008243153251722738,-0.05790004443189395
0.596,-0.19037904591871138,0.052825284077567536,-0.02484064293463706,0.0022065960850421538,-0.013206922466963079,-0.051537504196408734
0.598,-0.2068170678324732,0.05306474672838249,-0.032400086710644434,-0.005965986939645401,-0.010428633819848501,-0.04487890351499818
0.6,-0.22871565512425107,0.05217062305963064,-0.026502685119544192,-0.008211897462528147,-0.002512916980435248,-0.04410227321448433
0.602,-0.22855636463423007,0.041972388735974774,-0.046823631233334606,-0.005856010730785347,-0.006438247333010331,-0.0379134423107158
0.604,-0.23379267561733189,0.04133563572334466,-0.06514466636255017,-0.007857443097202998,-0.0042664411713817085,-0.03848666533489708
0.606,-0.24206792869316363,0.043707118218160056,-0.05135448284950196,-0.0027981340828925803,-0.0024710973682359467,-0.034041435073976875
0.608,-0.22934940092798803,0.03739991792548057,-0.07029544939500494,0.003827238921371681,-0.003744792527315117,-0.03279522051618187
0.61,-0.21586569888525106,0.04827435235930244,-0.0679171837913928,-0.00785578127788617,0.0010104660488041465,-0.03950881598696032
0.612,-0.23845051468969558,0.05159408491923871,-0.05429949039314016,0.0035308043965249594,-0.005320935330569205,-0.031324851569679166
0.614,-0.2439929829379496,0.04371141507446612,-0.06339493664112032,0.01831256350722529,-0.010771904105058624,-0.02896215981601267
0.616,-0.2603272433743566,0.03484833296830008,-0.07357175171522033,0.0138412004624773,-0.013285242427782467,-0.027929719376997435
0.618,-0.25844261376687483,0.029271562547462496,-0.07011645942622609,0.023025768005026065,-0.020115163658998413,-0.032381544558109994
0.62,-0.280436693083866,0.02570453996080027,-0.0438727989707632,0.022484962901049312,-0.014452897388057656,-0.035452586612864954
0.622,-0.30693767877248096,0.028427090764409992,-0.050698394162131726,0.020848820218766738,-0.0175257988094255,-0.01904080616518265
0.624,-0.3210300666163626,0.031863220758214315,-0.03795120601936628,0.020876523289297323,-0.011518376705213133,-0.021962065078847643
0.626,-0.308346472956559,0.009080711791298423,-0.06434248928864171,0.03877093662909393,-0.02223325628819799,-0.02251346878030345
0.628,-0.3243210197959996,0.01133438731258673,-0.08189764747883961,0.03125187787917149,-0.01639905065569958,-0.016496299470274062
0.63,-0.3253280267566063,0.030599201792546805,-0.07828101025319358,0.011879816050757165,-0.010616137129089638,-0.022738159494532777
0.632,-0.33140277059504336,0.026278108016923266,-0.07528778650254328,0.0183360594841159,-0.01317390156482984,-0.024813272838188814
0.634,-0.33261051146533416,0.021798630748568602,-0.07284605115046495,0.012499414482071267,-0.012781569280109498,-0.019987012441028185
0.636,-0.33397357216563,0.020914431316876477,-0.06658998818671491,0.007778004097216018,-0.010953714614412236,-0.031551826333425154
0.638,-0.3442759257940938,0.014043277839992699,-0.055279770417034906,0.01435907394393536,-0.017607243959953816,-0.02514151016604793
0.64,-0.3507904988178305,0.009152196184201392,-0.0507393496471653,0.01761672822845955,-0.015636642416012814,-0.026486437090872256
0.642,-0.3449950694599774,0.007685597710428022,-0.0508129481271052,0.018583558991956708,-0.021219331994352653,-0.026211964249532003
0.644,-0.35188564947241546,0.010156776018185024,-0.0456492223341487,0.026979606479593854,-0.015140412397270205,-0.022386859127383016
0.646,-0.34019415872553443,0.016363030390077048,-0.03710558841343989,0.016739529229715385,-0.012009382255710578,-0.022212714961538038
0.648,-0.3325954896369489,0.01657450250137312,-0.03859576764097933,0.02350062391797216,-0.012197624109958135,-0.025394621618582768
0.65,-0.33327813473605183,0.020450011010633228,-0.030531712199577298,0.021973388950996306,-0.013946106092749289,-0.025466538424519687
0.652,-0.32531518815838145,0.02427070927695747,-0.02875039499661685,0.023430927938020405,-0.013637168204809673,-0.030126798135592093
0.654,-0.339941591336809,0.009945389609548405,-0.04325458008979889,0.020497835252000277,-0.019189313514699873,-0.023599198327289458
0.656,-0.3347695252434671,0.014415800558434201,-0.05642654571991749,0.01895003883388707,-0.020961752718143094,-0.021216281727813948
0.658,-0.32327307591524895,0.0037699566575082875,-0.056144550405005975,0.0251579261746201,-0.021429050402564098,-0.023374862926331716
0.66,-0.3466847935953801,0.002665666946021903,-0.03607231423683513,0.027567511120722945,-0.01302802571321176,-0.02464081569107178
0.662,-0.3412369535061635,0.0057562920825760455,-0.032864916202465476,0.02535458600999888,-0.010976476374165269,-0.02563553888822172
0.664,-0.35085513265110213,0.01217673874940472,-0.0279100448860766,0.02752192218800697,-0.014714203392662236,-0.01763021641137217
0.666,-0.34497148509238573,0.008306834701346518,-0.027097147268664926,0.027592201423348613,-0.018718462975106757,-0.020323914956546795
0.668,-0.3378424878517383,0.008667119894691157,-0.029864104095162467,0.037171299653252804,-0.020136089543597975,-0.024615565406880757
0.67,-0.34290552601653496,0.00616172284714402,-0.04740473971820402,0.032264893717506,-0.022223526328953823,-0.02298245596697289
0.672,-0.342866687533281,0.01218302243451364,-0.05248115972465425,0.024012826794568214,-0.018424135542742436,-0.024305122405378802
0.674,-0.339507015534534,0.001894734481799925,-0.046226531268430696,0.030291133994226702,-0.025502940627171133,-0.026566964827789433
0.676,-0.3469302262192317,0.00394628822074828,-0.04619596289489151,0.028499058566582986,-0.023751166301004264,-0.02622587335122744
0.678,-0.3312988945153426,-0.0023341446929441585,-0.0368670265073479,0.033971666281727896,-0.020796463833902618,-0.02721488666048849
0.68,-0.33259983259469333,-0.00426109091221207,-0.03426687904137768,0.02686261372703956,-0.020283866436882916,-0.019192966688742066
0.682,-0.3311805841804881,-0.006123217949258268,-0.03477588229164325,0.029985694085604725,-0.02001243891774152,-0.021552710515953998
0.684,-0.3271355756346252,0.003946913618097903,-0.028112001380770253,0.022231549772588812,-0.011781621743674439,-0.02249040795428377
0.686,-0.3445413467992764,0.005182277874023537,-0.016558634880425693,0.024965667882722354,-0.015547932111146757,-0.01405832816692587
0.688,-0.3507441398702355,0.011371745577133819,-0.031079987081469945,0.013230292798830466,-0.017978750864450263,-0.017969043992439017
0.69,-0.348353617953686,0.00267970425385049,-0.035102505089988335,0.0223689770805611,-0.020847202068960253,-0.017860172440050774
0.692,-0.3576578861301369,-0.005221735994451445,-0.0562819470741551,0.021184896634516677,-0.02819735318651999,-0.01953709733915226
0.694,-0.3452788438181436,-0.018204519288870197,-0.04830498022327609,0.014252309860167107,-0.023631244062064755,-0.023983613121839234
0.696,-0.3255452927590222,-0.06355737890569818,-0.03521010536739111,0.035630930378640895,-0.030506252149500594,-0.04130074411019325
0.698,-0.2956152604020842,-0.12962806946341135,0.005344517741262538,0.062345315630664554,-0.029818755712540928,-0.04837420222482736
0.7,-0.2609760703130561,-0.1958372774123956,0.087632977641394,0.08692032249747843,-0.021682646178490028,-0.056192449978492036
0.702,-0.19137292199986292,-0.2409947842715368,0.13806252183206572,0.1259887699434203,-0.030471450263699507,-0.055259599725253336
0.704,-0.0790542718836128,-0.25834851593314684,0.13594956854099477,0.14350071428866643,-0.024022634213279024,-0.045477054606776354
0.706,0.07001248364947751,-0.28977409718830804,0.11099711022371526,0.14819933336202684,-0.025646346872107685,-0.04363109865617879
0.708,0.27232072065099505,-0.32316228438661015,0.07098640315608423,0.12986161858055273,-0.029173513157816206,-0.033915519578878735
0.71,0.571353371920028,-0.35552344905289035,0.006625163521893433,0.09455330480213603,-0.024907327196286164,-0.02382413768129709
0.712,0.8588879997745192,-0.37356357803012014,-0.06331843260635399,0.05977822888040282,-0.0334173729369747,-0.008679322033978058
0.714,1.1032595745175422,-0.33997478333464404,-0.10866287780701939,0.017124304432084632,-0.03205189805821092,0.002633886020250279
0.716,1.384034497309931,-0.23065644048186246,-0.13158964075567056,0.014454808801027405,-0.027928616507250877,0.00468550189923523
0.718,1.6435393110198593,-0.047828810475337616,-0.16180924480826062,0.037365732585991955,-0.017052724627209092,0.006336744971899766
0.72,1.9305421588706848,0.14402418156075653,-0.1198123504216392,0.10625636912946727,-0.013325270810569657,0.019015492367639556
0.722,2.2068336762123786,0.3584991885624939,-0.08789371420600416,0.22000074565097855,-0.03140844192542357,0.021495434632579958
0.724,2.4495618876113854,0.5797186900079114,0.00401370504937118,0.3804436461725673,-0.055430072273745495,0.026505391524945167
0.726,2.685634904631794,0.7840596931510936,0.07055412569232601,0.5004200825431768,-0.06923577904382032,0.02932358445977821
0.728,2.846927325646744,0.9791404645724622,0.07182895858295056,0.5682234577969263,-0.08299869957078077,0.05818194349349226
0.73,2.882321397848076,1.1651559752704246,0.023308613057785497,0.5798506477354659,-0.0780707146951318,0.08604973200614699
0.732,2.777094150192918,1.2923057025094347,-0.0758621862656937,0.5200554429049663,-0.07873606417329526,0.08554963324015147
0.734,2.4440543376723585,1.383123377761282,-0.14746881493632927,0.39668063389161656,-0.09000502048963166,0.07259223903633648
0.736,1.9199586681322338,1.5158008648181422,-0.1294831108712723,0.25344541374269625,-0.09177309099190345,0.04478610918868138
0.738,1.3772347330308536,1.5670687866343982,-0.07895872756633464,0.14340554878224732,-0.08255235140570061,0.007704718834036274
0.74,0.8844377389175969,1.574569829374846,-0.05919104023014396,0.0495609232739313,-0.06499511170701845,-0.01154533763565526
0.742,0.3327350160213581,1.564788530472438,-0.020139097860270384,-0.029407679674358263,-0.0563334643915361,-0.051895657002399065
0.744,-0.22090957850033166,1.5555183022673629,0.0706381426650658,-0.046604349696333924,-0.07165279641737922,-0.07081566337043847
0.746,-0.6187096070659445,1.489849373867646,0.13736690632042356,-0.07429772903837266,-0.06949320210413551,-0.07121868114977487
0.748,-0.7704494988453289,1.3977960640733362,0.24181900879270998,-0.031258229380690776,-0.07150439587759123,-0.061453049532057866
0.75,-0.8497621550139679,1.2637912702191452,0.2999384993409505,0.03556697928297348,-0.07058232313729997,-0.03755937453048102
0.752,-0.8381341516615006,1.127078979785281,0.3343112009211464,0.07329514421048443,-0.06335094487288472,-0.020084599339745053
0.754,-0.8092458598461285,1.0219354164650514,0.332312715750115,0.094471683289687,-0.051621673381853674,0.006634884069778815
0.756,-0.7797006460942252,0.9179154587605519,0.2921652235624153,0.07956498676940295,-0.046531935336467226,0.03263305527822959
0.758,-0.7334732743989275,0.8151559229062255,0.25647960658086155,0.06988878042266569,-0.03978913442049588,0.030033921018368732
0.76,-0.6856976319397954,0.7010275710532227,0.2137714708010032,0.03337875305153631,-0.035924538398773714,0.03958375802195413
0.762,-0.6047384275823035,0.5867395365807591,0.14441626750805947,-0.009910023170011275,-0.03324874103534851,0.0386475829508559
0.764,-0.5195106119639059,0.495649171886802,0.08126140681467674,-0.04968578674325813,-0.03901176591987424,0.03582585393348381
0.766,-0.46972822543008397,0.41260201694312093,0.030573675622278623,-0.08364534425940366,-0.03958518369866422,0.024379629156365087
0.768,-0.4001417845668885,0.33627879378804876,0.015375531183370657,-0.09164570448412562,-0.03688121202965189,0.016740523208426346
0.77,-0.3381106647843318,0.2631087072129848,0.027002249099791993,-0.067413715275168,-0.03944294443563474,0.01158157734916124
0.772,-0.2962491084974699,0.2119160741282266,0.05240043813802182,-0.03976656541975749,-0.045637801301797606,0.005806314897463771
0.774,-0.24189897558888007,0.1781740458013705,0.06345209963389019,-0.03126550107917721,-0.037390700652715075,-0.013511379746497153
0.776,-0.19875738818292393,0.14527012075742524,0.05286527960057219,-0.021364256011447556,-0.03077292445980661,-0.019317623455281353
0.778,-0.17839351561729622,0.11043334101778103,0.024453953654590747,-0.0158109909264434,-0.035883823645059265,-0.013489250125494314
0.78,-0.14170241377114526,0.08052894592701712,0.008163941550679335,-0.014722952671399418,-0.029574817435308952,-0.014813449226404499
0.782,-0.1365069988480501,0.052756852555860566,-0.024205704501032235,-0.019115631400777,-0.026151050286018947,-0.011605745182530387
0.784,-0.13455762135313837,0.0359032710013498,-0.02107144819516824,-0.023436670955087172,-0.028997466600593567,-0.014948241982369893
0.786,-0.14172407245685556,0.020406120447940216,-0.016083411216337145,-0.018187683652176587,-0.03269374279206735,-0.010303620053217845
0.788,-0.13224336563081476,-0.00339531635498663,-0.020796618325770636,-0.020914363126717142,-0.02421073259693969,-0.014184249571266471
0.79,-0.12002768108567571,-0.008119529177547498,-0.02050588151601232,-0.02847972551011685,-0.020416453293833996,-0.014980669189996089
0.792,-0.12311344183280008,-0.014143187914920025,-0.009890919704084454,-0.01826241083903402,-0.030954928978628587,-0.012373214514908672
0.794,-0.11107249053995702,-0.02704634461617784,-0.025390257122064233,-0.020942125797906486,-0.025822581660388876,-0.02205839628713934
0.796,-0.09725024572549552,-0.029990317209437255,-0.033625575203584064,-0.029577616750803344,-0.01789636138791544,-0.021760588446758444
0.798,-0.09226343215795962,-0.03809488659018483,-0.02582139636236749,-0.025128640809391176,-0.021261994161939416,-0.018378645353910608
0.8,-0.09052593395574395,-0.04334256686149777,-0.025312518593138607,-0.025171443091145555,-0.02302680399560843,-0.020763892627492283
0.802,-0.09827056629699298,-0.060654122721558554,-0.048830548799765894,-0.021259619824272675,-0.023638305390015504,-0.013594812114501769
0.804,-0.11183744163045951,-0.05810911106593163,-0.037002220973093344,-0.0317592133351996,-0.028340511533752537,-0.008074019002571084
0.806,-0.10036526542890767,-0.06905800692904404,-0.0330262619157664,-0.037958831025202575,-0.02837108100006974,-0.01620395152446589
0.808,-0.10288104694180386,-0.0913867687810796,-0.03690200908723495,-0.03371800986669285,-0.030035612475871862,-0.005086514480065877
0.81,-0.08604258355276487,-0.09954578839630597,-0.035963089915674096,-0.027443370980157398,-0.028771567637810937,-0.00023725483936038122
0.812,-0.07689730239655085,-0.09290970552613358,-0.03146780318865944,-0.026767943243680294,-0.02949095403529561,-0.001882172584430393
0.814,-0.06715328105190001,-0.09918111547551373,-0.04069829642145459,-0.025181745122069575,-0.02863863539723703,-0.007533253582804738
0.816,-0.03466338263015792,-0.09850346504214655,-0.034042571336818366,-0.01938980483060707,-0.0221377032309252,-0.010295974701420579
0.818,-0.02996455598383653,-0.08638191307078515,-0.04517247804347749,-0.03139179422055169,-0.020860522683603944,-0.011754175399914768
0.82,-0.029232668525598735,-0.07674172223765408,-0.03688244092091619,-0.031746700196169576,-0.030913659194078878,-0.007443647093083018
0.822,-0.018413686396540903,-0.07654237647707456,-0.042083346147010696,-0.03469823215051948,-0.0195149086325392,-0.0037545194391112066
0.824,-0.015478361174982084,-0.07267580810158095,-0.04279397628554562,-0.036863765796533464,-0.03073980867126524,-0.0029524164502419663
0.826,0.007357325537533889,-0.08792885864209041,-0.0534394037949896,-0.026828248136794748,-0.03431667769934848,-0.010920353491240131
0.828,0.013299655640471081,-0.10542780744996286,-0.042291434093567004,-0.02782274993420985,-0.03890843432152723,-0.004820097971758146
0.83,0.006092455126501497,-0.11354079790927454,-0.03620383154069092,-0.02766219383055981,-0.03747034066864868,0.004201918542153077
0.832,0.011063149350770015,-0.10691613826124274,-0.027886151961141657,-0.04004899660017708,-0.03779276630700974,-0.006275963327667526
0.834,0.020518790644831492,-0.11862961251578236,-0.04490834457257207,-0.03760090064256466,-0.03139285849264537,-0.009600750344373495
0.836,0.033092965386823665,-0.11500130360120585,-0.03574351653804788,-0.04707942494187952,-0.025577396519963887,-0.005754257620893521
0.838,0.04749969633577141,-0.10641240685580089,-0.03230493207598222,-0.043023481669753824,-0.027161867186387592,-0.008891327892542336
0.84,0.057064156609554925,-0.10343933789371997,-0.04244589934106744,-0.043687031708532574,-0.03445977313579098,-0.005361837402353138
0.842,0.08579824721678898,-0.11875899889070857,-0.07612754347464133,-0.03833468024963752,-0.03525063281428995,-0.007761341134335232
0.844,0.07799857975121788,-0.10171379948006215,-0.05351943020456369,-0.049643852862529585,-0.03740598532392102,-0.0011367280685459066
0.846,0.08110173775523347,-0.10739703861458791,-0.043889020991942765,-0.03584155471067295,-0.05172915652643192,0.008136713838304192
0.848,0.09737028153357659,-0.12100220824291617,-0.041986945632859665,-0.035534485373301304,-0.06136299498646608,0.003796381382867463
0.85,0.10907937205417638,-0.12907609817231672,-0.06459659701796389,-0.04488064495426799,-0.05766308949354807,0.015415904345179903
0.852,0.12659811376075122,-0.12830345825042097,-0.0478663681824534,-0.036152839713469796,-0.06852878427709685,0.010260295346002249
0.854,0.14208408838574488,-0.12919525193930517,-0.047495920796190395,-0.04033628708796558,-0.058190930846469695,0.008624583960751367
0.856,0.15707196187569014,-0.13504538560043633,-0.047005293416537294,-0.035683729656563495,-0.06014205274241961,0.009352429490647138
0.858,0.17780616523199053,-0.1182644513610962,-0.04294395869382326,-0.053043071506751,-0.053456067345041436,0.003998416232816013
0.86,0.17589382461875608,-0.11155198343660563,-0.029066971220714503,-0.04094537919237947,-0.05717753469512353,0.0037619683576685745
0.862,0.1929588411737045,-0.11748956107219204,-0.05294038745081784,-0.0456212814266538,-0.05780896562961515,0.006451793022348145
0.864,0.211576595565818,-0.12155911542297801,-0.047226099830736154,-0.04962603857085178,-0.06478233242521896,0.008289993914561469
0.866,0.2207387102548165,-0.12723175792689462,-0.05133395624077396,-0.058250469278543084,-0.06467188345957833,0.010370457378994422
0.868,0.2233750931897521,-0.14246703206879582,-0.03980958786002279,-0.047462596988499646,-0.07332593427479193,0.014388651527775078
0.87,0.23959240337550383,-0.1553362724157229,-0.037249084818483574,-0.04603074780279113,-0.07172185059704297,0.016048537088129713
0.872,0.24331042350992485,-0.14889089077374154,-0.03149332969592134,-0.05021407682041837,-0.07227729957640713,0.01888367452838548
0.874,0.27692339246433034,-0.15373618589106888,-0.038131995601811734,-0.059166578000464855,-0.06633438217603506,0.008623094028468208
0.876,0.3028714772029319,-0.15733149290322293,-0.05140683863104857,-0.05265573605211278,-0.06499906250583158,0.014823330050603576
0.878,0.294608874692067,-0.1509673384255876,-0.04737036855698014,-0.0515785762511358,-0.06749838083170234,0.021299386893788203
0.88,0.32169367113475744,-0.15133058379188388,-0.038763855817798745,-0.057234052791408155,-0.07089442370302407,0.016707952311322993
0.882,0.3448538021163025,-0.15980416496382147,-0.04181281884828724,-0.05783706962127971,-0.06985214941128004,0.016619307383760645
0.884,0.3631847126115416,-0.16359388347047152,-0.023118481124183507,-0.05145888109676849,-0.0763096616866333,0.019697283541834112
0.886,0.3846822675826681,-0.15793704403188852,-0.020309740409788585,-0.06890412769901598,-0.07345163383605702,0.016014799265742737
0.888,0.40360852773082123,-0.18553269482138118,-0.028303823301136514,-0.06168176525465485,-0.07613986275252965,0.019881815032044916
0.89,0.4250700009880939,-0.19879472338335574,-0.022780162637879763,-0.06709116335001154,-0.07265882610079512,0.02467226037882754
0.892,0.4544386026744598,-0.20172792688600666,-0.02753789469563675,-0.059803474365587195,-0.07136648878181123,0.021325532098709344
0.894,0.47876015849424153,-0.20766314986957013,-0.03433395999876791,-0.055188219705949705,-0.06824255944874447,0.023904293241045687
0.896,0.5042236664017189,-0.20802976878645207,-0.025559565768140377,-0.062209770814305204,-0.06777279440400982,0.024562209641347376
0.898,0.5139848433050012,-0.2128628439622054,-0.03228015992940855,-0.0644098812458666,-0.07247287595376128,0.02892198960763173
0.9,0.5326904691956903,-0.2192761887618516,-0.04420682430117344,-0.07090475115721186,-0.07976682854935148,0.02768345269715366
0.902,0.5778338070103987,-0.22655531152948108,-0.045400442416142904,-0.07840989151742289,-0.0672960694760121,0.015838356283169232
0.904,0.5998610053908778,-0.22856454049225455,-0.02618568365961939,-0.07445797412946564,-0.07230734137692583,0.02478837689534189
0.906,0.6227549369805357,-0.23973573905977158,-0.021081777139204554,-0.07485044321576916,-0.0758551971231036,0.022435090246561724
0.908,0.6459207286914015,-0.25569275972579797,-0.018175813096729086,-0.0752481150184704,-0.08514065376528956,0.022983884890207643
0.91,0.6633646573344275,-0.26120902593143774,-0.018215962538539444,-0.06753822755848778,-0.0820614314486884,0.028991838867553844
0.912,0.710479633508963,-0.26534272246478413,-0.005889041566195976,-0.07120194317652725,-0.08367546802622267,0.019885251509103658
0.914,0.7419451089792545,-0.2613300008033791,-0.01221864286675861,-0.07911795645953461,-0.08323419888319593,0.019480500854192766
0.916,0.7670128832045076,-0.2659371599532635,-0.025342514345269334,-0.07670761156193769,-0.07837079465646651,0.02091167707916489
0.918,0.7815641441323803,-0.2634216431222009,-0.022462108430364912,-0.08050800907062512,-0.08635090860949321,0.023429506885339027
0.92,0.7964458207765082,-0.2587377058831112,-0.005726067181670948,-0.07489451283057214,-0.09036426407388883,0.022303436171687396
0.922,0.832166492187556,-0.26127842714645816,0.011232955490488514,-0.07290542765047468,-0.08213665593613471,0.018534174956523035
0.924,0.8452422221821919,-0.26055552990834124,0.010685724399242808,-0.07074172368749311,-0.09241308910726442,0.023640859200260354
0.926,0.8729145576345493,-0.2745320060661332,0.009540767206399257,-0.07466014312761238,-0.10113824089848601,0.020397703536415807
0.928,0.9075167607557239,-0.2812092476663557,0.012872367940839314,-0.08157204833366678,-0.0880385350204755,0.015731540865816726
0.93,0.9170520995512743,-0.29393958110359064,0.011453157512333674,-0.07020937190442153,-0.08862529919376715,0.018706995335173015
0.932,0.9555181089320649,-0.3012414092046024,0.0017433613171543578,-0.07135396705716349,-0.08884497109652573,0.02113208155266898
0.934,0.9848991377792302,-0.2919771944100403,0.010059033394940874,-0.07685795409209852,-0.08516210375933322,0.013024960909575148
0.936,0.9837933204697901,-0.2824778777897695,0.039292495037294164,-0.07466552274321628,-0.0770821134682598,0.021613257698717216
0.938,1.0090777412925007,-0.27840497565296973,0.027331282662025745,-0.07882021586556155,-0.08285555443707436,0.01836952269723641
0.94,1.0249070801717786,-0.28766205999024097,0.02301761223811291,-0.06501415268571627,-0.08547515524844673,0.021437997762231882
0.942,1.022471880797665,-0.28253044468576416,0.03216262862881191,-0.0633287514168503,-0.08216806775629715,0.02101221803966791
0.944,1.0372175125217165,-0.2772302971518056,0.0397499375733144,-0.07361326661235071,-0.09094347388458013,0.016411704466085003
0.946,1.0373904749885319,-0.2790121758207999,0.04052288480008264,-0.06276927766854708,-0.09653966451880223,0.021457313373294557
0.948,1.048801880222777,-0.297669882561393,0.026958110472360575,-0.05415938357133986,-0.0988591606519671,0.02694024321396067
0.95,1.0606482052674109,-0.29309782941777507,0.03553851776631609,-0.06179015371160911,-0.08932951345453821,0.01889584634155509
0.952,1.0646252492292672,-0.2899584065514787,0.053091416627139704,-0.05960027254187381,-0.09692805988294503,0.01944598044201082
0.954,1.0581790698572182,-0.28194405924971183,0.0493523123252488,-0.06837674516908238,-0.090663830140607,0.01084027581200552
0.956,1.050849038230307,-0.2825061097842619,0.05219528964255594,-0.06092263320452101,-0.0886740648991793,0.013818281415112921
0.958,1.048018849490924,-0.27501997211447676,0.050024851083793204,-0.05878221097410903,-0.09412935178983595,0.015166987105357339
0.96,1.0476253276571765,-0.2623069342815652,0.05675611170992753,-0.0531506350282983,-0.09705980233381833,0.008092417214583229
0.962,1.0370949563918868,-0.26097134894900803,0.0560186325431116,-0.04249045747852323,-0.0960905975291928,0.011523482757468381
0.964,1.0297174279242656,-0.24669645210227667,0.07528145015423295,-0.028327607089904352,-0.10414841072540684,0.011081206851211162
0.966,1.0118173120858902,-0.24081336760857586,0.06620726459577853,-0.034538327984091205,-0.10577420183305825,0.007411076262337816
0.968,0.9889843044125909,-0.23885165035453007,0.06665960553605994,-0.028402988411006358,-0.09926385284241623,0.009277974459153215
0.97,0.9816897233664479,-0.2308377790304399,0.06744597087282597,-0.02010550225616605,-0.10015590910289855,0.016076545775867954
0.972,0.9564896097538427,-0.20756344494606874,0.08297257104885618,-0.02581975816284456,-0.10255211066774046,0.021549205306550405
0.974,0.951990139467144,-0.20402067477822544,0.08149093027406931,-0.021846495452452493,-0.09578332337822562,0.01348030068153467
0.976,0.9272188981790537,-0.18043620222597198,0.08212915671906598,-0.012919948906973837,-0.09484887728504526,0.01274093592320612
0.978,0.8885456167649814,-0.1564134013387674,0.0874760197315444,-0.0037634847718008018,-0.09350092772480843,0.01446937714010343
0.98,0.8571848335333694,-0.1442941509018385,0.09972993627728301,-0.0038884271168169652,-0.0938791058781989,0.0097445566133261
0.982,0.8222448470535313,-0.12250618806539702,0.11037350305293585,-0.003324148326870177,-0.09538161576487249,0.0009341304601240869
0.984,0.7922693641908737,-0.11403982277690437,0.10961247265886527,0.0010877199239480602,-0.1014217173669206,0.009404554150999412
0.986,0.7394147000851595,-0.10103910529119918,0.12190999370958035,0.004610579310554746,-0.10368428667265324,0.006944422727208617
0.988,0.6813430520041577,-0.09101714191044737,0.13092942724876303,0.014639948442480713,-0.09670209616639697,0.012989805874080659
0.99,0.6560612624191501,-0.08409985168856102,0.11797895864056024,0.016057150901845615,-0.09627441938191393,0.010406120877848016
0.992,0.6464209238476762,-0.0696516675197394,0.10613772758281642,0.015301794497859154,-0.10061896044547576,-0.001712220555115001
0.994,0.6033276578611786,-0.06391597138810964,0.09438164579656634,0.024850147928743217,-0.10189110337224527,0.003319600114970803
0.996,0.555066177224542,-0.04151585890646622,0.09518057231860923,0.022411236375713343,-0.09129587015042123,-5.054899082192711e-05
0.998,0.5133977274815095,-0.029483053078800933,0.08443481727056983,0.025737547279033872,-0.09183446049457085,-0.0021808890488274253
1.0,0.4629046164132867,-0.017179495324096683,0.09870016383589414,0.03240290158976082,-0.08530554803475798,0.005037823355406384
1.002,0.4312188328342396,-0.006244322421298979,0.08944837113808689,0.01878438571126408,-0.08464517029127085,-0.002122895862991018
1.004,0.38457531018253344,0.0009090501470850662,0.08981668375658203,0.03151301607504238,-0.0917762219686731,0.0007859730485783884
1.006,0.3232652437944347,0.013032766390829573,0.10172326912488416,0.028931318951582165,-0.0944433584012853,0.002896830382287685
1.008,0.28532540629734354,0.01432878369415914,0.09250328407619741,0.019878230783070952,-0.08471825530464819,0.0032724118111096185
1.01,0.244463566754277,0.015182737221118046,0.07902869375209708,0.02668172276476795,-0.0875809840275075,0.01005574569630218
1.012,0.20490014415604751,0.021923541724255823,0.07663129404158406,0.01295819215997257,-0.09138639558017314,0.011154448129533995
1.014,0.17764775260551172,0.021695685250195506,0.05733298031087843,0.026088649556168263,-0.08943708749027789,0.009210279144215232
1.016,0.12599971050301953,0.027840781356688344,0.04975801787050682,0.030001066470597807,-0.0929567816668764,0.022491217381701633
1.018,0.10266362631249665,0.04269096198875693,0.03327842634377536,0.020921015663519314,-0.08541309691148227,0.016975032658176223
1.02,0.06865548705435377,0.05025396089799677,0.03683731090292469,0.022062309190675252,-0.08315115665890165,0.01131960498255043
1.022,0.04307639309023822,0.05482693060824333,0.02416465769620805,0.016161184065020952,-0.08237580018059189,0.012691402090146122
1.024,0.005049519515966563,0.058151628315983785,0.022477765111201548,0.004787850943279693,-0.07861070035415582,0.012267367018764692
1.026,-0.038521448377439295,0.06497974601833555,0.022984510263654424,0.0037117118175808124,-0.08031059268461903,0.01975419719933505
1.028,-0.05824650510050861,0.06170784243009071,0.016937200552107314,0.003128923428159294,-0.08224725250353562,0.007957727677218068
1.03,-0.08388927347574526,0.06177382127199906,0.015543325580254733,-0.0006178716829330106,-0.07977319155682598,0.008601767619367281
1.032,-0.11946430205593161,0.06008241813853216,0.012881962631993335,0.0008382782736136928,-0.08740152790854953,0.01900380683825986
1.034,-0.12418501948294305,0.060849094757441394,0.0013812757075681087,0.0016346816319687373,-0.08712186379873903,0.016720199525073243
1.036,-0.14713083238959362,0.06229513463915805,-0.009340271123382116,-0.00012520983803085916,-0.08017304407768444,0.016410163089647413
1.038,-0.1739306083484124,0.06849447388883889,-0.017920483021959765,-0.005857110904371855,-0.07190278797210152,0.012726520541065026
1.04,-0.17914436835971584,0.06668742991856058,-0.026436955516054933,-0.012012890882130924,-0.06989375251782726,0.014977941543844284
1.042,-0.19935577856746853,0.06989182533061197,-0.031747100012884305,-0.01202281911804795,-0.07456731212647516,0.013447692941573554
1.044,-0.19825845668325845,0.06388512572377779,-0.027140878465953623,-0.001199154771920458,-0.08168026568131714,0.009375656599040653
1.046,-0.22573137822640973,0.06994847636638031,-0.025595525732358793,-0.002810986840566448,-0.08418853763264095,0.01448998171216263
1.048,-0.23216719857459148,0.06089398015260297,-0.029474191562121305,0.0008628936451016666,-0.08696149116389476,0.01817160341788935
1.05,-0.22930133579725936,0.05704155041720869,-0.0330829235632116,-0.0018593040073722309,-0.07883328943964137,0.014042672775579941
1.052,-0.23962168528937203,0.05592273854786004,-0.03840268833962354,-0.004433970776315324,-0.08166744476972458,0.02295891325128822
1.054,-0.25400291244754086,0.0577794815203137,-0.029387636027516498,0.005884674277066708,-0.08354984273140682,0.021741313134725198
1.056,-0.26829100337400735,0.05670633650632158,-0.021462344221492357,0.006643741218071534,-0.07978450611826368,0.02458625100449441
1.058,-0.2685997700125146,0.054187192252863794,-0.046053628821011806,0.0028488777667073526,-0.07588331216864459,0.020118493374798457
1.06,-0.2679376085184897,0.06652513674970306,-0.047753504093814333,-0.007717399714067093,-0.07291730264016057,0.017621121758188404
1.062,-0.277855236287755,0.06750089037860096,-0.05669935784230222,-0.01632709376328996,-0.07236102267153734,0.015207492315127271
1.064,-0.28394245003992613,0.070751589345999,-0.03776698219600595,-0.020578994107410698,-0.07393459372378118,0.01723139765153829
1.066,-0.28912679981508643,0.07421911659851306,-0.020549360237171636,-0.01812940916510086,-0.06819622253807403,0.011886573519095665
1.068,-0.3077404775887204,0.06311922250410558,-0.024986829919591114,-0.019388667699219982,-0.06766863479910204,0.018716277276877816
1.07,-0.3072243387816992,0.06031990829519909,-0.009266179410044697,-0.007036496382948345,-0.06809808218258427,0.01646125033311082
1.072,-0.2944576870378147,0.05326561901647118,-0.03177246026949839,-0.015235771837232293,-0.06957075826314699,0.016271468709476086
1.074,-0.3131477822348056,0.05634355269190476,-0.04143316790295161,-0.023328532862274872,-0.06798850011669255,0.014023203612528002
1.076,-0.3149734986378847,0.06399453853750255,-0.04282854176953206,-0.022389179052364958,-0.06780212027891884,0.019376622272624565
1.078,-0.3165571649863259,0.06633796023274582,-0.06192089690908812,-0.023431697477909363,-0.07319036601365463,0.014167758964419309
1.08,-0.31596600406683567,0.06590917362020798,-0.05188399843893158,-0.019467651608811722,-0.06877110418166378,0.013492989990127838
1.082,-0.31584894763352306,0.06604993934846733,-0.04415407019226696,-0.019351423512628276,-0.06659171813161681,0.010284041960667954
1.084,-0.32476616548929893,0.05705302187567002,-0.03985500699371487,-0.013196908833683149,-0.07743649134586285,0.014982221756587219
1.086,-0.328703989633906,0.05616749862712087,-0.06942822417267697,-0.016012240741398825,-0.07848415772909753,0.0132011105778045
1.088,-0.3166144386185445,0.048491499076439036,-0.06924161401915613,-0.011044516183769403,-0.07845906294663473,0.015023981898625931
1.09,-0.30931887581223483,0.05091518311894328,-0.052328166462392287,-0.019486105801435383,-0.07659602492465839,0.012473582700225727
1.092,-0.2937198045157886,0.049839510960857626,-0.04203834238173811,-0.014971065965348933,-0.07028431385139003,0.009079767418182175
1.094,-0.30067778268316525,0.048899980432972084,-0.04007501321792553,-0.019144163390587134,-0.05991136110469725,0.011272076903359842
1.096,-0.295042435898721,0.05176927007191996,-0.04931704071008724,-0.014766630854814371,-0.06485393584534677,0.015364191090032118
1.098,-0.2852254463292096,0.050905760743539974,-0.06921772179557976,-0.01271866127980749,-0.07574075401371387,0.01522616641891848
1.1,-0.30465248266520245,0.05295030634008543,-0.06352171536929212,0.0013084984795378224,-0.07859396549733584,0.02428857083279807
1.102,-0.29634793830909634,0.056126792846713944,-0.06408363430935937,-0.006827154818246982,-0.07199392598454578,0.019056058590474965
1.104,-0.28464880843081813,0.05360355763764166,-0.061779234170604214,0.007592401971870599,-0.07857702212230029,0.01876685523364862
1.106,-0.3031012808096097,0.046516724907419565,-0.0724154561498699,0.002313983185447724,-0.08374829642612372,0.02173939264435448
1.108,-0.28280067209032367,0.03871663047984054,-0.08213719748099779,-0.0021878899325150692,-0.07616077830046575,0.014773563108067286
1.11,-0.2694169123948699,0.043300204939603175,-0.06394718861031518,-0.012731790638556308,-0.07154551470528249,0.007893296484066411
1.112,-0.27432126968593806,0.04481985265501358,-0.0729899664082221,-0.01562697664515987,-0.07663979344350079,0.015180613919495795
1.114,-0.2787633095561471,0.05463115413417196,-0.052377196956665456,-0.02540311785668265,-0.07031198822131111,0.01065457782702778
1.116,-0.2846276787948863,0.04852326721355308,-0.05304335942528991,-0.00937139096426275,-0.07446754101901792,0.020904928781285158
1.118,-0.2711544105970856,0.04854788521091611,-0.06445606637954404,-0.012688988356801939,-0.06978070487161347,0.010278543757648091
1.12,-0.26241098894386194,0.05454701709719221,-0.054680250829683745,-0.012570846188631052,-0.0684414177342006,0.005335548421544073
1.122,-0.2719681435943312,0.04504211283319229,-0.05373834903372333,-0.014592739596840074,-0.0702698036787179,0.007182383609476698
1.124,-0.26570554589990447,0.04838956866484186,-0.05245491691261694,-0.018332035598492603,-0.06758114594810502,0.005789739379012262
1.126,-0.2840186022838147,0.043073378179263655,-0.060353090386855435,-0.01230080595404005,-0.07304881953389933,0.0037257949596463838
1.128,-0.2821262179780011,0.04372359918698898,-0.05262148467699215,-0.00996063424445088,-0.077136409823424,0.014515009973355555
1.13,-0.2658551437916447,0.03954007244592507,-0.06002073652980463,-0.00731487583018871,-0.07494298957943496,0.009935844612413475
1.132,-0.26515590168611414,0.03175652369305135,-0.06596859700265374,-0.010160053951178145,-0.07403254107132294,0.013683264255837513
1.134,-0.25433218811520947,0.04168749438030578,-0.05911391581126294,-0.017548717003347817,-0.07207904208941561,0.007592468662713047
1.136,-0.24886350727709658,0.03575406009059952,-0.06339301877257913,-0.008047794689194518,-0.07592464733937238,0.0065745637964798745
1.138,-0.25902430633043344,0.0428118530362846,-0.07000683879780789,-0.018995466049237866,-0.06986092328899834,0.006216210837954705
1.14,-0.24704065941661865,0.04135173438714239,-0.06622000149440323,-0.012872015285033699,-0.0711891167199476,-0.002816489327019828
1.142,-0.24727069100376584,0.04233398204712432,-0.06635138641654612,-0.010602684172869713,-0.06757444937124188,-0.005759157267164998
1.144,-0.24635004994736012,0.042351929502855254,-0.06557786266201684,-0.011010061372302808,-0.0643869206349113,0.0009739449741488815
1.146,-0.2557515278886647,0.03909175313881322,-0.0710707874647374,-0.012368837745277084,-0.06932292913794096,0.0017563528891870368
1.148,-0.2575454175143267,0.023532107821912115,-0.06977110300575061,0.0011250633483080158,-0.07142213611003828,0.014652954712114474
1.15,-0.25802180808036507,0.04002633210648805,-0.053466722367333824,-0.007431139519229854,-0.06709798104892455,0.010434656429845358
1.152,-0.25134746798799606,0.035304494785909225,-0.05062019395783214,-0.012696013787357055,-0.06100541534153254,0.005641506553687351
1.154,-0.25927672412005776,0.03852107836976458,-0.052924322365854606,-0.007997943617103717,-0.06429581765652402,0.012064009280402131
1.156,-0.2451893638323387,0.034539745789338036,-0.0634860110419465,-0.0014756356084087536,-0.0642172330413097,0.012709076676169502
1.158,-0.24955552343105109,0.03130880277471,-0.04886473320299747,0.0017171517027851336,-0.07389833449049356,0.009666142578750843
1.16,-0.2479211438815108,0.03683051940573771,-0.05139230479130322,-0.010226871755330788,-0.06383188317006017,0.005310302231411654
1.162,-0.24147013112438234,0.03904158662676118,-0.06292467735572478,-0.01576667916863647,-0.06310366369489363,0.004468851569175063
1.164,-0.24956978877756394,0.03474749205007981,-0.06188847028613189,-0.008952485469231587,-0.06714758946772921,0.006884471127605978
1.166,-0.25319266363869003,0.03792606239202061,-0.040436082264236096,-0.013694961198594409,-0.0646745532958275,0.0008950599082862808
1.168,-0.2657338428493055,0.03928564696995989,-0.03435675636471206,-0.011475753723403852,-0.06167931295398239,0.009014465587791561
1.17,-0.2583977621287685,0.04218424457552453,-0.02547419087613147,-0.012317586367095757,-0.06710274455704479,0.011375477204534004
1.172,-0.2555454289818685,0.04203489851992878,-0.03213111420188177,-0.016823443878680594,-0.06077499708997222,0.013351569575778622
1.174,-0.26259440615276053,0.04009610206914245,-0.04288925283304243,-0.013673810644573584,-0.06117662199499661,0.0138302501040159
1.176,-0.2584092277871969,0.03505224316407893,-0.049290702184363516,0.0014793063171212688,-0.06308081237623121,0.010534170450809425
1.178,-0.2482229059840811,0.03853368923007498,-0.059537096768150694,-0.008648113756748019,-0.05845865949627461,0.0038387211314062763
1.18,-0.24737602320018473,0.0431029267250807,-0.055863536247448616,-0.011061679689534525,-0.046980168272256505,0.005513432947918068
1.182,-0.2566625056278018,0.056078377318534114,-0.018962697939563625,-0.016305703086487062,-0.0504351597178064,0.0038474694221700897
1.184,-0.2531107573245474,0.04276588400681795,-0.041947078679781924,-0.006959170255476023,-0.05482716567816376,0.0014878050882717792
1.186,-0.257222136491144,0.03476553207395666,-0.06216841417922631,-0.008908468395008178,-0.06425163922821409,0.0045589799053958645
1.188,-0.2552277130401807,0.0344351239760653,-0.07071281739014629,-0.022980750470061963,-0.05303482107788151,0.0036391526832884854
1.19,-0.2682036312848188,0.024633540933315507,-0.05683858349590432,-0.006526423644173643,-0.05890180159903067,0.001883590560696531
1.192,-0.2669033683554785,0.020121524149553965,-0.06492997454995926,-0.006561338977205122,-0.062146255834324364,0.0031634463030235167
1.194,-0.26312602303218324,0.02022533297535927,-0.0679257677698669,-0.012891444363699002,-0.05441023692425017,0.0056587594991641755
1.196,-0.27549829373108253,0.01931006568331561,-0.06759357277204439,-0.004994696348378094,-0.059718415521353437,0.008256547673104861
1.198,-0.27077503585681456,0.03685541435227131,-0.05194447681453055,-0.010560279899053128,-0.05301320413440462,-0.0005704099725403453
1.2,-0.27237558619169355,0.05004006052073296,-0.04144519470189504,-0.01666939074913574,-0.053495294219812646,0.0010357619125534825
1.202,-0.25913180866091984,0.04879415743449445,-0.07468935435251058,-0.017169408244636246,-0.052537285580699304,-0.0030667189338089425
1.204,-0.2554170591519991,0.044540651935715374,-0.07998395468847162,-0.009236908427206324,-0.05993588930952129,0.0017157808966343706
1.206,-0.27089593402409395,0.04736943530306273,-0.06392554474022107,-0.010951023827696008,-0.057236445770664966,0.0055565630459264844
1.208,-0.27016555288578026,0.039374784893392245,-0.06248486707181005,-0.011306327358009438,-0.056133911788780515,0.005208788410120045
1.21,-0.26569759151986366,0.03969909375476199,-0.06912778357458178,-0.016798060213434423,-0.05584419879563422,-0.0011540396852440006
1.212,-0.28483932816188423,0.04317440856280343,-0.052664817648226066,-0.013738748039626046,-0.050823153604219,-0.0007866814934876797
1.214,-0.2793509466455384,0.04402594847646394,-0.052809911543625146,-0.030507036342101862,-0.048364096817709035,-0.00742000470270832
1.216,-0.292597361527132,0.04343680271131852,-0.06153700941820935,-0.02205530651781026,-0.05542289235839118,-0.0008471975516440373
1.218,-0.28796464322155296,0.04278900285399734,-0.07886461016890495,-0.008936480590632652,-0.05757976441977748,-0.0017131573846808261
1.22,-0.28075669005421844,0.050687896007340555,-0.07944868706962395,-0.01853209587679103,-0.05421426158781429,-0.0033995258524025535
1.222,-0.29127078647338456,0.046155115954405954,-0.07869548793628482,-0.009602183431220608,-0.05231225034560776,0.002708780952096785
1.224,-0.2830406992472925,0.05249669562350989,-0.07052345412880232,-0.0020370818190676328,-0.05444975251276321,0.004278749721658592
1.226,-0.2837455638287093,0.05286084931472522,-0.06234330189220047,-0.018748431531974197,-0.052318513387569786,0.006524815790048336
1.228,-0.28329808783177013,0.041599198457028405,-0.07091442612117634,-0.003500138135081059,-0.058213259341055555,0.013709045748786394
1.23,-0.27359752315011554,0.04539349159503751,-0.06206412184471054,-0.01474765266295988,-0.0554237930091798,0.009370589641411239
1.232,-0.28570763950207,0.04597382463900148,-0.061729223579958914,-0.0035291433196718595,-0.06167065715058621,0.018287355319534154
1.234,-0.30421122437529147,0.03799592744936065,-0.08433159820494866,-0.01205906700323368,-0.06535024278783967,0.02166073910598878
1.236,-0.30305147050201975,0.04716235725790946,-0.09013774716900065,-0.012838231053090355,-0.06158263510418825,0.011838086511640143
1.238,-0.3092360675179705,0.05434867272942204,-0.0715876284827124,-0.01409885632281664,-0.059189660058428975,0.014083648602629038
1.24,-0.28459475655864586,0.05723116453974044,-0.08023967252454818,-0.019475659642342612,-0.05479170173606581,0.0003321841155667637
1.242,-0.29584502625661946,0.0548891380821942,-0.08026925399021215,-0.013473406820730317,-0.06234445117776083,0.008433300785746747
1.244,-0.30893211973984935,0.05433435165864846,-0.07882701211860653,-0.0037288996601134443,-0.06712154652162407,0.011615872440573079
1.246,-0.3143996379796585,0.047584756260111716,-0.07719185828792433,-0.0054276174690163275,-0.06058908695860484,0.01066928322500095
1.248,-0.3187931422155609,0.04409535423626653,-0.07928289453270228,-0.015636639523529183,-0.05214125827180559,0.010229630308480073
1.25,-0.3188589123196827,0.05264927881746345,-0.04234868315523775,-0.014966591141898099,-0.053669787439571376,0.008742508847846466
1.252,-0.319424779069384,0.05560615326284196,-0.05148997606086468,-0.029825732158505366,-0.044179987737162564,0.0033292966151712757
1.254,-0.33094957663988006,0.05006739979277196,-0.06702566631169127,-0.014051379612805176,-0.05251596060265692,0.0081591455616328
1.256,-0.3232097002199494,0.05478913751412392,-0.06664963552486591,-0.023369133973999943,-0.043305503548272534,0.007163005462719408
1.258,-0.3212920380983217,0.05833834677176167,-0.05961386280078268,-0.021771964272224942,-0.04690699338304385,0.004429382770129694
1.26,-0.3273700650031537,0.062452130454532795,-0.06301804261741621,-0.015047441122912862,-0.04952195848574012,0.012606189011574275
1.262,-0.3171846110237308,0.05760458835816559,-0.06728449551748529,-0.0231069616935905,-0.050757494190550756,0.013803912340411338
1.264,-0.3263773385595889,0.05844362748051297,-0.06847047006301114,-0.0125914129562131,-0.05314849276258793,0.021167259632075837
1.266,-0.3365838984929796,0.05340733361783667,-0.07035623453813206,-0.006152444010373993,-0.05086440147882725,0.01999435155840053
1.268,-0.3167838936604884,0.04085060300381121,-0.09041212326364896,0.005951391536408182,-0.0552008628711487,0.014098280063380094
1.27,-0.32764320226960314,0.045851188787046304,-0.07057250835316453,-0.00020773433923970797,-0.05164929895362406,0.011048666250169415
1.272,-0.3122332605102877,0.057132191133243235,-0.06467280408775304,-0.003434558366703071,-0.048803520424613514,0.008202069615878802
1.274,-0.32444157958958064,0.04851788925676329,-0.052566176368907945,0.001319166089547475,-0.05505187891169607,0.013128722764890445
1.276,-0.32772362445127223,0.0525445044676153,-0.06198741894838567,-0.0030989404368089836,-0.05243848788233294,0.014382237283667705
1.278,-0.32702822978928026,0.06255331406498849,-0.05046347353823063,-0.01905261009158797,-0.04274999619513439,0.0027899125856897375
1.28,-0.32455225859394743,0.062493515178746566,-0.055412681650089224,-0.0104435864147553,-0.047589038660910514,0.005965950468333113
1.282,-0.32618797246293735,0.04880778786365989,-0.0628675989497217,0.0020058175198298597,-0.0518810501823739,0.008883860512275153
1.284,-0.3335133755867781,0.06695329020333175,-0.04210245596879967,-0.004530328128476538,-0.047669987083924385,0.01316111354852614
1.286,-0.3439834232132748,0.05818222568459904,-0.052887684137991456,-0.004427342825765914,-0.04757000987121364,0.01603624105243955
1.288,-0.32818602163294913,0.05671767550503593,-0.0717337412522872,-0.015538894654851098,-0.040637582191103416,0.015069432953733421
1.29,-0.33493286312649134,0.044734844149729905,-0.058893633550634254,-0.00822061847560509,-0.040796090725192594,0.016495283097337162
1.292,-0.3464948268276049,0.041301198442133126,-0.07409486790685799,-0.005154557680378511,-0.04042376286355091,0.021143777742501285
1.294,-0.3358883631782696,0.044933103230132276,-0.07350073635780364,-0.016723932689816135,-0.04033767432980503,0.01587290041396301
1.296,-0.33262606910330367,0.034512394757849174,-0.08247823227367394,-0.00035850891956641835,-0.04785646365102968,0.019683639448338768
1.298,-0.34121259561486805,0.04594539242737862,-0.05961650489415726,-0.011091150149953674,-0.048968350302230755,0.01082373471945004
1.3,-0.33110255788897586,0.059163669729986636,-0.04823983894838126,-0.022637634445389705,-0.03323329538977551,0.011890910212475245
1.302,-0.32968505083029165,0.053146812640342746,-0.057476417764021466,-0.00961757977367599,-0.04569947560807853,0.017509210379016323
1.304,-0.3288974518062206,0.05747583118669435,-0.07075867924894129,-0.0023389798360630154,-0.04155574354658818,0.011258377990990791
1.306,-0.3434502018637009,0.05322608419792089,-0.04793814020049189,0.004075725811152166,-0.040365312462189745,0.02286885731471752
1.308,-0.337840420183469,0.05005907400704861,-0.06052723898095571,-0.0051336136560181074,-0.039414780848638774,0.022455110641944935
1.31,-0.32257432142896597,0.04652433209026808,-0.06790466070503871,-0.004560050659249829,-0.037948351142054644,0.012897466956799272
1.312,-0.3359830651452234,0.043288599085650886,-0.08771203244581213,-0.003859935127628246,-0.03665914952656253,0.025827616284550915
1.314,-0.3301657917170284,0.04115400740400225,-0.0849765184314355,0.006164583620661819,-0.046171247198930676,0.024289360140129345
1.316,-0.31646423294389286,0.044192872183598526,-0.07989180533358148,0.0014214201942784985,-0.04442410399449508,0.02247908144863009
1.318,-0.3335866296273494,0.041031708481273896,-0.06043918290477569,0.013821680786047903,-0.04819831679100881,0.0220850995352747
1.32,-0.3276971245204495,0.05801717391402524,-0.07221213433030005,-0.01173410386142834,-0.0319731270809449,0.016368354638413893
1.322,-0.3280928425751631,0.05410407123153754,-0.06892133230851917,-0.006292707262646237,-0.0403995912758426,0.017706347080278656
1.324,-0.32813729651863466,0.05235585937545718,-0.08135460231431821,-0.0004746860993986025,-0.04511554371122101,0.02028116806403469
1.326,-0.3159671514422349,0.04927748105205477,-0.07882577408781674,0.0030491409930416295,-0.04128925717741864,0.015344840433785218
1.328,-0.319796031321395,0.04670654503577608,-0.062193530991196205,0.0033854266613504752,-0.04242157330256833,0.021155695011051474
1.33,-0.32953156890090407,0.04430050860226307,-0.061357267954947184,0.000630554273265948,-0.03792288863103081,0.014563883874045405
1.332,-0.32461395551388106,0.04156424563302779,-0.07558145632130421,-0.0036359007459771642,-0.029854646435867247,0.015483106967656934
1.334,-0.3436000274797145,0.04107151473913166,-0.07647794598454509,-0.01106555411903909,-0.029786455343839363,0.024477200432214855
1.336,-0.33830945690109576,0.06194592788418146,-0.04366360893882246,-0.012036867787456407,-0.025393846363743845,0.01326475365023004
1.338,-0.32560349967736213,0.05513627584998823,-0.059428582653106736,-0.014761680584846722,-0.019159965795513635,0.009924551169326357
1.34,-0.3235514488442163,0.057771453964174886,-0.0679333277237103,-0.014452665713214704,-0.02095478570130844,0.018286065363352814
1.342,-0.3280530850515861,0.05476422202434177,-0.0674244630647343,-0.016636711211585397,-0.02140343018316352,0.011967945493107658
1.344,-0.3442013626935155,0.04915717672399189,-0.06593146591416046,-0.014550478225637644,-0.025729401825097288,0.019176233172853944
1.346,-0.34784539066334513,0.04471464211329344,-0.04935952610791223,-0.005006423175321893,-0.023100290528335815,0.017929041302879412
1.348,-0.3391179970344739,0.04165179600224721,-0.05846207302702225,-0.01671039531743447,-0.020571158493720515,0.011500600090992819
1.35,-0.3354257941119101,0.024929668865622315,-0.06657094721433997,-0.0009184261005112021,-0.02509547898957707,0.015017050539951518
1.352,-0.32729355045326103,0.03000106540471418,-0.07366201790207284,-0.00117662616942853,-0.017057902021305752,0.013450973737762845
1.354,-0.34127367304823336,0.03165092521470373,-0.06805540325654842,0.0008477281381621023,-0.020964673637251283,0.011952500964816403
1.356,-0.333553000024439,0.02956420042855136,-0.0756025447880988,0.00974618484226405,-0.03134949331208617,0.015378594159995169
1.358,-0.3260766647368287,0.04385667753656046,-0.06877323063661187,0.0008939900114795643,-0.028242240485329997,0.010375678886750561
1.36,-0.32324300764884034,0.04645920678063901,-0.07718767950867625,0.0004772535790466778,-0.030625433362682804,0.014138887269126085
1.362,-0.3244640634298197,0.04002041599940715,-0.07979067602113675,0.0029485043309255047,-0.03475696803956844,0.017444774370812228
1.364,-0.3313074867127235,0.0510863439799196,-0.07789042005068723,-0.002289308456736028,-0.030868254457862544,0.01213566723635263
1.366,-0.3320378542725697,0.04246579108704252,-0.07972779814812744,-0.0003380257179203987,-0.0332685951416478,0.01279772468994935
1.368,-0.32360212071953215,0.045575856357454786,-0.07770740336587238,0.001280634652263018,-0.03444832252396061,0.007406566602391496
1.37,-0.32981985784427564,0.04034199400154874,-0.08648382558501112,-0.0044015493844284295,-0.03154700037077992,0.007458306524956992
1.372,-0.330742633318711,0.044216826370497,-0.06829776272884956,-0.003846331747582441,-0.031764475878727036,0.004787949993160584
1.374,-0.3338840724472485,0.03895126171933898,-0.06740259731019338,-0.003520430956555374,-0.025168737177782733,0.005055731257076514
1.376,-0.32866231680094676,0.033755435958228885,-0.06976134029974887,0.0057203851822808195,-0.03044184084142137,0.008169207971848108
1.378,-0.32592920886907084,0.044201740781729074,-0.0588099437566481,0.003683623427457988,-0.028089502879865058,0.0060425101571358365
1.38,-0.33137704895828757,0.04111111564517493,-0.06201734179101777,0.005896548538182056,-0.030141052218911543,0.00703723335428577
1.382,-0.3443758093157221,0.03613184555269022,-0.05185042471613223,0.014787194798385002,-0.038018873860349175,0.006044839658543204
1.384,-0.33401372279750025,0.042489397639212355,-0.053568736736061315,0.011164837416365255,-0.02625708347790127,7.455803770461226e-05
1.386,-0.34063706989297526,0.0377138400679369,-0.06103253164864309,0.00431997267495478,-0.02153346820527857,0.004039109939833623
1.388,-0.3333038292651484,0.03079191056039472,-0.061289890938706265,0.00994929237228443,-0.019978954765469084,0.00024901736674706667
1.39,-0.3209619032211543,0.03289707627487615,-0.06106083227931949,-0.0003834157464594341,-0.01995812167147845,-0.003612120606493697
1.392,-0.32403690312038247,0.03114979251544119,-0.06674298366715913,0.001833707137776479,-0.022292795032639416,0.0023142259456254994
1.394,-0.3331620389355801,0.03690681266933272,-0.0557333484119504,-0.0024151938549960925,-0.0202451799528665,0.00422786367660457
1.396,-0.32951020402003517,0.041212456297626904,-0.05752755534314285,0.0010922007296541494,-0.025350618625389565,0.00645749252820452
1.398,-0.33104790450100613,0.019081122396130936,-0.06328377635401024,0.011874325373296203,-0.025538181321973694,0.006382235139092235
1.4,-0.3336763882410821,0.033495199732574824,-0.05188762762872789,0.011226895237248197,-0.021035928379470558,0.00280121171313976
1.402,-0.3372258604760444,0.027468570509846107,-0.06433928231319815,0.008215058448612608,-0.029574577725697188,0.005740586692959641
1.404,-0.32380262709788615,0.024525300829682656,-0.0848243743589425,0.017800681707820974,-0.029336027280048912,0.0028709354465013734
1.406,-0.3283440670129362,0.03036988272396216,-0.06874345928025442,0.0025545025419612933,-0.03247807819423178,0.008143704525478388
1.408,-0.32390360924011363,0.027230114881559936,-0.0681968310902954,0.006256571748399272,-0.026676871956839272,0.011170600245192666
1.41,-0.3114590770854568,0.02289211859503695,-0.06007318642977378,0.014926620711292226,-0.021117245336845152,0.005243364096163195
1.412,-0.31510170072510757,0.025093497832411337,-0.0475364713927606,0.023388499413620405,-0.02570188784800351,0.009638297531705834
1.414,-0.32790332538142997,0.025959032528291334,-0.04556063599042627,0.01423312092168244,-0.025302151460840295,0.00977036877188473
1.416,-0.3174857006287608,0.038023994417035224,-0.057487023741342715,0.008426916554708706,-0.014606742722862049,0.003990717396483097
1.418,-0.3175308926895279,0.03595064615033946,-0.056935019073137076,0.005796538214405149,-0.01900467360649466,0.006350195467125876
1.42,-0.32607302281626205,0.04546180231802432,-0.03882672011058291,0.0019995200911780446,-0.02038634081538636,0.0048160334213158944
1.422,-0.33586744857000644,0.04509090796412216,-0.01912146288788337,-0.002865644963582677,-0.0074916657522127224,0.005930873894269372
1.424,-0.3380313650759161,0.030169995795887795,-0.048641913210115864,0.015287641173557005,-0.01795968336122586,0.015187296062381521
1.426,-0.32796614765516596,0.018333961581025345,-0.0658768001950608,0.001513306993272182,-0.022905663388741112,0.005314602222135071
1.428,-0.3279387148331847,0.019452812620206008,-0.06176576939109072,0.009916711964388503,-0.01714459483156575,0.012846086277032752
1.43,-0.33398537935121075,0.013236924926396278,-0.05004006886377281,0.01552299149188021,-0.022229545811651888,0.01648932016078574
1.432,-0.33383239439216345,0.02102881716603752,-0.04608719240496233,0.011103065059406197,-0.020492615168754676,0.014245155428376824
1.434,-0.3344044735384701,0.018692833568018312,-0.043127775973098005,0.017038186057982713,-0.01660640392989703,0.021998387703454
1.436,-0.32042003844331657,0.019432448788339246,-0.04679866952358194,0.020678349909167917,-0.012603187229560527,0.015730802880826456
1.438,-0.3286979415946625,0.024986748255104697,-0.038895479122937705,0.018912892242128942,-0.017852031022938638,0.009228272546021179
1.44,-0.3270179700130451,0.013467137647122185,-0.06244921443833504,0.024586966218275594,-0.02074147705030403,0.01389687674635573
1.442,-0.3203424702787301,0.01789947632071669,-0.06754493755343574,0.023347571241172784,-0.023030288921211093,0.010214514542111345
1.444,-0.30886404966432535,0.024351439767019513,-0.05762404752094371,0.025601099454991207,-0.02147415944899018,0.006761414650111362
1.446,-0.3091863737987714,0.02652153402045021,-0.054795789874531896,0.005984460634740551,-0.013753875039209404,0.00913909751093307
1.448,-0.3171226400094148,0.019359930432256606,-0.06463617124880246,0.005215910328716879,-0.00926162645352022,0.001584681407400162
1.45,-0.32789315102363575,0.0162618639091048,-0.06162512762447402,0.010982417675615763,-0.014492030232700508,0.0070628421101834645
1.452,-0.32967584128661875,0.01943619591372198,-0.06158200072549725,0.008394841617066587,-0.017125151282664088,0.011807567454407898
1.454,-0.323894556408485,0.017287277460098307,-0.04652324149242286,0.007969563056393411,-0.0074853228463588805,0.003944865077813312
1.456,-0.31020402430276556,0.006797755410387576,-0.07040644629867499,0.005222279454060678,-0.00430055943111901,0.0022968557611836703
1.458,-0.30369106488078323,0.00819079225721691,-0.08071778315135036,-0.004857100753745204,0.0010723779273606618,-0.004821040663111867
1.46,-0.31311287945672106,0.013900971322393155,-0.07602948797895163,8.407656169323627e-05,-0.004278992741167901,0.002114295412321809
1.462,-0.3204216755751789,0.009599024043413729,-0.053766369807196686,0.01864645370769535,-0.00929953039965062,0.0053837126855037064
1.464,-0.3188912223354264,0.01012524274238775,-0.0569965832296059,0.011968422015348779,-0.006116275842795577,-0.0016743666214197607
1.466,-0.31895655575702936,0.010460133952290401,-0.04760070769003203,0.014922996763090314,-0.007575913027309841,-0.0018400008203172565
1.468,-0.32742183999266744,0.021712076790876056,-0.04509412149919571,0.00221287450426189,-0.0011575281286519896,-0.0009451655946678502
1.47,-0.32675662285980245,0.014615243725003528,-0.045587861234787586,0.00691360003984841,0.0003033491695693786,0.008601437073707701
1.472,-0.3273497245469457,0.011645399374759453,-0.045492476073396904,0.008153762822952016,-0.00018904329731443434,0.004619984554368455
1.474,-0.31572427303979306,0.016421816262276675,-0.033561564943071484,0.002930776892420524,-0.010598020341553315,0.0012563476667786263
1.476,-0.31418824202042706,0.010954856599936686,-0.03591531324302198,0.020315245069448536,-0.013119305017002715,0.001610778201787189
1.478,-0.3081149514663095,0.02088043007938042,-0.0347201218155343,0.006413689686656284,-0.01067446969333115,0.004190532204860904
1.48,-0.3005446644965932,0.018769411561219952,-0.04584676720725382,0.011701952563532177,-0.007947325131445531,0.008266273877818111
1.482,-0.31366740425542744,0.014951524112731708,-0.05346412606520663,0.01873741402367295,-0.007500653854736593,0.016741535169944945
1.484,-0.3092713155066027,0.02126965721648879,-0.04499562028934906,0.007636313828604675,-0.0010266023661844915,0.014503924905020728
1.486,-0.3051125886641785,0.026207846261370422,-0.030682337206146645,0.0023074023207452082,0.0034206895739963203,0.008314737641225067
1.488,-0.3094353343289696,0.022566902345795153,-0.04729621071542989,-0.0025258454504466857,0.0011019611366022886,0.009222399555806764
1.49,-0.3113190268739286,0.014065296369426081,-0.0498122606826549,-0.00020224084918029638,0.0013626199344700142,0.01765179824778388
1.492,-0.31704054843835644,0.0016745556341219545,-0.0424169762689978,0.03084554443769858,-0.004587788800908164,0.021782354066606523
1.494,-0.32918965469259664,0.013820470278868414,-0.03579828380786329,0.015918539087671987,-0.009144174116039981,0.023464784390860322
1.496,-0.31783481683979686,0.017413554584531293,-0.036632108445577585,0.008446239646260142,-0.0004774009133336214,0.014978724393461469
1.498,-0.31616950767932656,0.006921044190990956,-0.025477505182342042,0.016357804574832775,-0.005492411982137045,0.02159970705246246
1.5,-0.31105847590613267,0.011403088999363013,-0.041454996149318246,0.01738527360725506,-0.008116038223131485,0.013851473079907329
1.502,-0.3080741535181059,0.005355096247566144,-0.0442319246252013,0.009913409078070746,-0.00594341387187704,0.005931069807450666
1.504,-0.3211335203801249,0.0041206519759144815,-0.0511588775721844,0.01621760027879771,0.0010781752055531023,0.008454705128165577
1.506,-0.31267902945929615,0.006850592562377709,-0.027080068917739855,0.013497440802311165,0.003279767414614859,0.003968127701855376
1.508,-0.3160486182145468,0.003335799709315729,-0.03257339946902157,0.017375159727669724,0.0012295548250858283,0.006449169168767467
1.51,-0.30480901583734465,0.0038765258206793045,-0.0352203437033266,0.012817331184856373,0.0013908251101256855,0.0030549805444291655
1.512,-0.30729977175999895,0.012116918723365521,-0.019103500343011986,0.01496695529939633,0.004074622828253171,0.008629078720582717
1.514,-0.30051105543022677,0.00281358844953545,-0.026819162858280933,0.018339341594572615,0.0023572733639890277,0.0028478236827014004
1.516,-0.29083750384465995,0.002175286609136408,-0.02544531678033622,0.015743335369286272,0.0038340030361444398,0.0010469516623245088
1.518,-0.29382741554301883,-0.006004949652659673,-0.017424186422601802,0.0346653547173473,-0.006268242362239858,0.006602845335144092
1.52,-0.30396187037022143,-0.004030183793195213,-0.012754225276992659,0.036051878844921476,-0.006041000476196373,0.011490781505495758
1.522,-0.2860909904516015,-0.0061931122053164355,-0.02216084851048574,0.023144667278559107,-0.013557124707779063,0.008530801886761214
1.524,-0.2742949710450365,0.004219250069857894,-0.00751517166984833,0.020407008248683925,-0.0015402432236727788,0.0006368646946199344
1.526,-0.26810382363247,0.006665754278572207,-0.010879572171569098,0.015932442413398865,0.0013035313928850848,-0.0004266549059046405
1.528,-0.2417433844650547,0.006621310185612965,-0.00963140938306674,0.023655248700385493,-0.005005394534320655,-0.0049235435467000176
1.53,-0.24408386072917074,-0.0015174337843021559,0.006649662282958646,0.029157459682144816,0.0005843556886781219,-0.0033279846692941977
1.532,-0.22448772927892097,0.00048307435077373466,0.018196908069274157,0.021548432513442517,0.00681678186444242,-0.020973098670217624
1.534,-0.21081706371124084,0.009316823084634614,0.03372037621371018,0.012748238725378646,0.005411640761739794,-0.02304389000823859
1.536,-0.21475455541961047,-0.0036663622086633677,0.025245908675884318,0.025387578553676737,4.593407045813986e-05,-0.022026501217122966
1.538,-0.20036386300230707,-0.0003440302373025404,0.03811448361394003,0.03325254756896097,0.006890557962190315,-0.02815099914712121
1.54,-0.18526485241279564,-0.0018690016162823168,0.046928350006675876,0.039609595465116755,0.0025368123196784463,-0.02030652192543379
1.542,-0.16372422482011556,0.006104481281194627,0.05447800499185835,0.03393586877490517,0.0034540146162489937,-0.025093165677731042
1.544,-0.1439555239683287,0.008535565798394679,0.0661225077226259,0.03403562989701415,-0.0020744508667654748,-0.028133199302832753
1.546,-0.16205232911647197,0.003589717945267216,0.06575916582328761,0.02770372397110151,0.0023722016996844644,-0.026583491604715872
1.548,-0.15867563290698553,0.003941532856489585,0.06600191275635342,0.03035367680024906,0.010590074648566154,-0.014570280915951523
1.55,-0.16921246024238135,0.0030455304756921253,0.08053787184224617,0.02946753287302895,0.009626771173121822,-0.012480263218497014
1.552,-0.14483580439115748,0.021917325234731312,0.08472462546468815,0.01634131236058433,0.02288292876414839,-0.01674072467050789
1.554,-0.09374928777740578,0.015241124615129808,0.06439805723881437,0.007121130039110656,0.01670283386114746,-0.03261478309159727
1.556,-0.08929406941559981,0.013848890138037537,0.02889931180406017,0.0038929763221432433,0.01698146844622441,-0.024745653891947404
1.558,-0.09435423352662987,0.021558999125292442,0.052610606303343854,0.011130652513396795,0.017583030337216494,-0.018012037131832605
1.56,-0.09984940961347519,0.024714243176021746,0.06466651169869127,0.0200780396726308,0.016733675271842424,-0.01763797709768102
1.562,-0.11972335575682298,0.03160214610020199,0.07470937862260496,0.026763345723478087,0.019613266496843116,-0.012139575762556505
1.564,-0.12657997990418496,0.04865357597299969,0.06976638896359404,0.017235853698594327,0.027239544192884383,-0.013519108148815424
1.566,-0.1473383527312445,0.04968903711412218,0.060893278967046306,0.006986890447448053,0.024183414277102428,-0.007027006504645027
1.568,-0.17560271316190365,0.057084164524246,0.0530735731767733,0.005349155994966025,0.019686933555506117,0.005649882041645974
1.57,-0.17401707003175215,0.04557063749933984,0.045620351675042074,0.00738181100555332,0.026745703619965845,0.008671346615251485
1.572,-0.16942721562351873,0.04617456386488815,0.04599798311341765,0.008669304975768458,0.02877277809771626,0.012021295098981739
1.574,-0.18305146858124524,0.053528186618073854,0.02874257802021258,-0.0028910233063678486,0.028464903610558336,0.005179791723561517
1.576,-0.20023536495486846,0.05827856742534461,0.03731057540606738,-0.017211268121024872,0.04040497229002241,0.004343394208062756
1.578,-0.20312634665589271,0.04489283675625756,0.02066076394297792,-0.00858083060154864,0.0347322162056033,0.008620484658608981
1.58,-0.1931943990570411,0.035494136688371335,0.011036304705100843,-7.444725570124463e-05,0.034592231010497576,0.0024926374393224146
1.582,-0.20133972504367362,0.03596291191321335,0.0018199098092414204,-0.00389753509273439,0.03457956461182807,-0.0032853684072194815
1.584,-0.1951404532335894,0.02364409107813584,-0.020835871686061887,-0.011600265792838862,0.03741978893824407,-0.0007518201371233988
1.586,-0.19378896241269666,0.021697265786626063,-0.009498225537478979,-0.010448542363354199,0.042483583508994165,-0.0014261611831225289
1.588,-0.2045222072036726,0.030126429304708963,0.003727914481145094,-0.007944923677722522,0.03718704220919686,0.0031474917898152567
1.59,-0.2223782436251617,0.02599570247430145,0.0009480844616382611,-0.00904717733407433,0.04050975981153443,0.006262320421247101
1.592,-0.2394229763256718,0.029360816566364658,-0.008634697005283933,-0.017084532977130567,0.04458055525540504,0.01064649149400018
1.594,-0.25107715161264227,0.019380180001167563,-0.0330835093672151,-0.011060987065281325,0.04681186085231985,0.019036525201694538
1.596,-0.23966971298954678,0.022353052033391788,-0.029967097380160172,-0.0060698227778479405,0.04622557436407781,0.007406679341720522
1.598,-0.258007267240268,0.025884730194731496,-0.03441830774467674,-0.01349951156555222,0.043071196403864836,0.014736984400068879
1.6,-0.24892048563457467,0.01922061507853167,-0.04234291668114766,-0.00907313241325472,0.040896649881732285,0.01266915026749861
1.602,-0.2467294818254666,0.023092400804769167,-0.0294706526553322,-0.008397402505507627,0.0503390422210669,0.005362789301270039
1.604,-0.26216057296627115,0.026018864177039455,-0.028123935716613795,-0.017431936006816105,0.05370954945812517,0.010296338341329526
1.606,-0.27324119688847937,0.020179203623098375,-0.040556444414574115,-0.018809763243844813,0.050280956749885294,0.016312926658601755
1.608,-0.2817949057670736,0.013024897368597434,-0.029937777872392334,-0.00835575667230155,0.04743481927862609,0.012520038145629683
1.61,-0.29104800316850793,0.004644499881660837,-0.029034703131824345,-0.0018725066882613552,0.0423682488919807,0.021416267497865547
1.612,-0.2840896029000312,-0.003436311641563932,-0.0134574449098514,0.012380227240645301,0.046107280275305855,0.024060425561724143
1.614,-0.29020373222882867,-0.0084648760908701,-0.0262603813865301,0.015125333192857507,0.03829305331358519,0.021166562517871544
1.616,-0.3051871612885967,-0.003243520989264481,-0.02558654679834857,0.009097761546944905,0.0462142554314811,0.02406497522571372
1.618,-0.31197845985810496,0.0006927736121995939,-0.013075306660650142,0.013350839107229192,0.04132356464928374,0.019098434983243425
1.62,-0.3263774299215215,-0.004735133933087031,-0.02616263597773925,0.013749811491207357,0.04046287231900824,0.02203902456032186
1.622,-0.3327047825319706,-9.138002732238785e-05,-0.027049145185343727,0.01250511980274662,0.040200607674926836,0.021074323350173285
1.624,-0.33855212399856127,-0.006034685846100981,-0.01912963007017588,0.015082456832042597,0.04751009186569455,0.023801999163736504
1.626,-0.34526997094544154,-0.014683280334659658,-0.02327826885099865,0.02154409678741826,0.04474186958283694,0.018223041033541137
1.628,-0.3373984610635662,-0.014558725781038593,-0.008040175893149069,0.014071295555787438,0.042101504384721204,0.02064164280080593
1.63,-0.35052216295139577,-0.009063712313681496,-0.0180381923694551,0.008475957565724687,0.04441529082637374,0.020184448840696166
1.632,-0.3507324399292005,-0.026864681221767647,-0.030126174046551563,0.011020718019551849,0.0439917433430735,0.023276627253561385
1.634,-0.35315088627064123,-0.027447836704210922,-0.030733516316918997,0.011635561983489107,0.041940364429196006,0.021224827298112207
1.636,-0.33548045689529377,-0.03145878493415016,-0.05043878311273076,0.02282156563194446,0.04114109120663861,0.02219727512211177
1.638,-0.3211979285189333,-0.02929029111546239,-0.03591192395924046,0.012349991989912453,0.04870879262773202,0.0073600285796164636
1.64,-0.32094250459539253,-0.022175510593858937,-0.03464466046911928,0.007241889254892834,0.05043544406584122,0.004546528152554808
1.642,-0.3208507533409818,-0.031013980564418234,-0.04282702076559307,0.018779167941886343,0.043137981657986366,0.009149569946983986
1.644,-0.30583957537389334,-0.04018494227462572,-0.032458545394243137,0.029632696661456587,0.04676990941416066,0.011272260657948794
1.646,-0.31952973409266083,-0.04168595318937013,-0.030477670847712465,0.021256476261891023,0.049384902622451765,0.004427174999306473
1.648,-0.32258483450173653,-0.033159520946257244,-0.014924348828234,0.02333596091336175,0.049114652611037986,0.0030294729403602914
1.65,-0.33184763099753634,-0.03378986504965876,-0.013065800261575508,0.015526698741823096,0.05353554891432993,0.009251283354414528
1.652,-0.3466991860383667,-0.046914799707856,-0.022656472105579636,0.02248372849000933,0.04166025049753356,0.016115923517116517
1.654,-0.33097621670358185,-0.04518828734286944,-0.024361409222294773,0.021854319952954265,0.04715253862562551,0.0068705733851586095
1.656,-0.3255335932977761,-0.04039293246830054,-0.0172240229185099,0.02507928618420738,0.04927394659680535,0.008695611269088582
1.658,-0.337617308887842,-0.03908387812720392,-0.014408984432890758,0.02792309297818911,0.0455693422359207,0.008298588034394903
1.66,-0.3257007494904981,-0.0429700292890996,-0.02657342063212839,0.027929870237462857,0.04546834542521829,0.004679037056380385
1.662,-0.3339459123067756,-0.048270500526526885,-0.020443038703004342,0.028056798552878348,0.04545103325987947,0.004893207096602792
1.664,-0.3414691961760787,-0.04810391599835612,-0.014202778286226882,0.014823691308770755,0.051985125078107756,0.003255770307087463
1.666,-0.3400846071194384,-0.059971922037568154,0.005313705283456051,0.020646879049450735,0.06324463960363302,-0.0006838335992881989
1.668,-0.3495432721642592,-0.04949298868342368,0.027815218551254493,0.02067700859668616,0.06167620593170965,0.01353554311770338
1.67,-0.3429501635855525,-0.05550641213189221,0.018910130702404663,0.02490512013316119,0.0606925429099517,0.007011079922068471
1.672,-0.3113187353846259,-0.07090435903799525,-0.002522609399270318,0.028662411060642046,0.05606168233143257,0.008335759129241845
1.674,-0.3094077245175916,-0.07003078941204212,-0.017904958568541362,0.037195704214175,0.05166803262458525,0.006206739095570468
1.676,-0.3131631416460016,-0.0621688538446894,-0.014522728268849159,0.03101634178186758,0.055128062235875464,0.007084064309681005
1.678,-0.32686485776214896,-0.06505936567279648,-0.012875404837235357,0.03657794846178095,0.04753213538330215,0.013975974307395897
1.68,-0.3303298210877653,-0.06465894274601093,-0.012656839609622906,0.03753287599112709,0.05230239610336261,0.014676089830490525
1.682,-0.3208317917996389,-0.0720965955275804,-0.012296940161249282,0.04040098940514284,0.051883345325568424,0.01547010516190838
1.684,-0.30826913103080067,-0.08509836011960495,-0.02893984356720408,0.04054114771871798,0.04616970570696467,0.016709436832179413
1.686,-0.2902365784084664,-0.0903061745725994,-0.01707520616137713,0.04657629865734808,0.05112528632028035,0.00028958850800152997
1.688,-0.2928530581478602,-0.13291245225739906,0.014966985330825883,0.05782536696419108,0.04971448976102413,0.00045128069465251815
1.69,-0.26085481030625957,-0.18797721240575332,0.0705334859864606,0.08928492062303207,0.04536737432093686,-0.013401214347845492
1.692,-0.20931304764971065,-0.2445501319576864,0.14725323858743994,0.12829870362658838,0.03565583959230554,-0.0338859457315469
1.694,-0.13305328681170697,-0.3004781442814951,0.19881390389824635,0.16936476889893595,0.0353098775055503,-0.036871178263136295
1.696,-0.029584026378641097,-0.3203011857995388,0.2008944404361914,0.18548119458960388,0.031151275461263776,-0.028431218415852572
1.698,0.10172916030008486,-0.3400354458122617,0.16987317564544224,0.17945060738601162,0.0357894239276989,-0.018360566187859438
1.7,0.2882826879611824,-0.3807376457866224,0.13963887015987517,0.16956181258691386,0.027329946553336478,-0.006587220347250107
1.702,0.5548077846661027,-0.4107883959791048,0.09985059230598356,0.12919838636613665,0.04115439199015216,0.00197907789979748
1.704,0.811989903062431,-0.41735843899819725,0.036611813115130336,0.07559183839315357,0.036785251132755395,0.009650464869002593
1.706,1.0434426069064093,-0.40240522396114925,-0.047794943391122044,0.028971846458020072,0.041108084846635744,0.01308658424516364
1.708,1.3023515139952715,-0.2915875668157154,-0.10587741126263521,-0.018683915667096332,0.056333633348835226,0.006638846750382634
1.71,1.5494209072520475,-0.10922787695232689,-0.1102341203137421,-0.014980266244251975,0.06789125711323701,0.015070406672240749
1.712,1.787288266254956,0.08269531093146389,-0.10844813064393276,-0.0067771075090011105,0.08023329526600977,0.016839314414331254
1.714,2.0394003691496074,0.30146188433041904,-0.0820951326447469,0.06391652531245827,0.08147295518471737,0.012311935250377229
1.716,2.259154743729602,0.5190747112152452,-0.009581449447247507,0.19672117984929352,0.0634656351578509,0.012290366454830188
1.718,2.481405029174449,0.7217622941190692,0.053799958576522915,0.2983426615237042,0.0474415013070052,0.024889253168020594
1.72,2.641788311644328,0.9214952922168216,0.03344736471364497,0.3385488754323378,0.04861853808191712,0.04705614657079756
1.722,2.6958915919140694,1.0962209894120736,-0.03132349787066,0.31794993036190755,0.05509262607636401,0.0650254044535413
1.724,2.5888888562081545,1.1925688634631029,-0.14011049118644503,0.2438008831217657,0.05566540883930515,0.07270701473153904
1.726,2.2597649211028124,1.3055670830133115,-0.21757769685657793,0.09779560337033173,0.05107346455360275,0.06423142711197519
1.728,1.7224802451752652,1.4460247320439619,-0.18079643716614238,-0.052240066812474804,0.04739801559062812,0.03447774353738091
1.73,1.211141552266294,1.4939218153657807,-0.1498768340471316,-0.16134753018926337,0.047586458480327234,-0.008870752150143995
1.732,0.7456572494666424,1.4744307740255496,-0.13592954173523433,-0.23698198442078322,0.056112935401620136,-0.03229710405567882
1.734,0.25133852608161394,1.4892556976031335,-0.09528453830074812,-0.28625839670102343,0.0695804170133205,-0.0538163178264335
1.736,-0.25673644191051836,1.49882143924199,-0.008751888856238732,-0.26221908791945553,0.056611972234169965,-0.04815488630858246
1.738,-0.6036350267788219,1.4649773779173545,0.06497802073812167,-0.23045935270844015,0.03978556724788566,-0.03500350384734919
1.74,-0.7504547942318288,1.384948182925829,0.1590954660288109,-0.1697917139404466,0.03926240112475471,-0.02594375708111907
1.742,-0.7960548061047529,1.2683208772795014,0.2509344440931705,-0.06041451052548886,0.025089426453831346,-0.006287459991103811
1.744,-0.7984825450657511,1.1183525010511695,0.31236046196146744,-0.0020696482608242536,0.030540299792599854,0.020418844768188567
1.746,-0.7560910761834276,0.9749117630171957,0.2874397250986831,0.017167296997554555,0.035048931337064174,0.043877125248612855
1.748,-0.7340469851462766,0.8535039260898623,0.24842553053743396,0.013098459342124768,0.038816737602084504,0.06720104577368462
1.75,-0.7120056874393397,0.7616633199826349,0.2367078335816619,-0.0035919877960235067,0.03145091681382477,0.06578841861079344
1.752,-0.6455828064699186,0.6403621791058818,0.17763814811211162,-0.03327456667177291,0.037299631804868415,0.06297984542257948
1.754,-0.5569487328774234,0.5182693439181497,0.11854986946911317,-0.06864986900194263,0.04593607408748759,0.0612294669601546
1.756,-0.48333948799310594,0.4270369221015964,0.0691574863260456,-0.10198584930375841,0.039211955754524803,0.050366253548647634
1.758,-0.43869365728479354,0.34593426146819234,0.040359221852972235,-0.11541586955207721,0.036777951456291126,0.04130704509235395
1.76,-0.38131236381407396,0.26705220687146686,0.045025549236519184,-0.11015536885451424,0.03944833614469625,0.032416684545451824
1.762,-0.30217676274703364,0.20314790114143527,0.06203361043945841,-0.09901243104185403,0.049132628695240405,0.02197938598218122
1.764,-0.2717202651319061,0.16537286710515517,0.09022438804088351,-0.0679039637846919,0.04420099917954828,0.0210607531921989
1.766,-0.2191573654856582,0.12327902644939777,0.08750426260665574,-0.05623850126442639,0.04858223324936554,0.016127293226452826
1.768,-0.20190365333320276,0.08565886070084588,0.07473262849940725,-0.037835734231390514,0.0444087306244019,0.012992233176071781
1.77,-0.16968126245630016,0.06329471933955783,0.06197456918227827,-0.03308701175927847,0.043363227051034396,0.0063455932542580955
1.772,-0.12665654352907588,0.03982438766224212,0.04811949190521133,-0.03935576412243826,0.04912711865313375,-0.0045763433279374195
1.774,-0.11809006725259664,0.025334408041588354,0.03332696755161769,-0.039644604532999,0.0497203962743026,-0.0058412378692440136
1.776,-0.13913994000477545,0.014924353599702064,0.047365913015392586,-0.04102558298968311,0.05270958926045114,0.0001446873852576994
1.778,-0.13334776163148682,-0.0011495937318114235,0.04287749421824999,-0.04591308236638482,0.04757865314107544,0.0060686356375114405
1.78,-0.1304471844155108,-0.02411491844805656,0.037858887776454964,-0.03652941427782391,0.0438512431941249,0.011564759129010456
1.782,-0.1320134961473405,-0.04078308133540054,0.045234198599141816,-0.030638890209786364,0.04742711546454292,0.011298682787277272
1.784,-0.13196748112008674,-0.05838914066600334,0.03397784419228159,-0.029155225409582153,0.04356056460637824,0.007332654386112948
1.786,-0.12283322376382647,-0.08489534991838943,0.009877911299843625,-0.0318242725834029,0.04824140163163401,0.0038327789630334492
1.788,-0.1005166148415621,-0.09200355070839354,0.0015860499830953943,-0.02244259897887471,0.04119640917256793,-0.0016634723228301225
1.79,-0.10402700811960512,-0.08962383944458785,0.0019324993042567692,-0.02575810051845715,0.04285411678525731,0.005441504248436472
1.792,-0.09894673927056895,-0.08275190404467314,0.0037571028147738703,-0.024567221738751022,0.04402778278176424,-0.0023083417256834654
1.794,-0.07609742793672497,-0.0912850680735784,-0.01522218258352898,-0.02588542182340207,0.04844262214711137,-0.007948206732728549
1.796,-0.07405050463838816,-0.09148004664698375,-0.014343206986319504,-0.017061301197084218,0.03933258572758126,0.004274248511836789
1.798,-0.060311523139670566,-0.10250834979011063,-0.0011023481168453107,-0.020054017085104646,0.04415889502863024,0.002176995886351367
1.8,-0.05284236153892567,-0.10375856183475665,0.026329687437539398,-0.028147852219683644,0.04594413878172802,0.0021025491412863637
1.802,-0.033526955565346316,-0.12025619962233784,0.01291070768491856,-0.03489815864117549,0.046885701934323155,0.0015891268806757465
1.804,-0.034967184227655934,-0.13585305341602472,0.021724944734444203,-0.01472805968738681,0.03826842638707963,0.008073681159520419
1.806,-0.04103624720062231,-0.15169057811759662,0.012389394728933035,-0.017484796377957024,0.04630099226256831,0.015264332064315923
1.808,-0.027393335755280745,-0.14845279682135384,0.02492353694985549,-0.011931086546649887,0.053230549283993005,0.014022971237640226
1.81,0.0006841078545617499,-0.1363620056789167,0.020958029739847842,-0.02507384109163847,0.05968946475442112,0.011065271687128836
1.812,0.0012331292463940578,-0.1395966587952301,0.015431990704060128,-0.02379222537805788,0.05179640625104741,0.01596794255230717
1.814,0.004251828204037679,-0.13420076582912913,0.012579550470021943,-0.04094706401973468,0.06721954423129016,0.011158882933575582
1.816,-0.008598040118498067,-0.1435375241954821,0.016370037913677138,-0.040882315265396894,0.0646916096770532,0.02228053984639971
1.818,-0.0018050294019034243,-0.15437853274127722,-0.008327721088488891,-0.04205820434126605,0.06007179001948787,0.024976054038764815
1.82,0.017876544337302458,-0.16209301390561798,0.0011903594323207515,-0.05103331404141485,0.06361898866637768,0.018050226431541624
1.822,0.035087873013493205,-0.17234224252274286,0.0027147087117615452,-0.044500234588606684,0.07151611214901214,0.02391327460490164
1.824,0.046504357046413286,-0.17259907270085215,-0.0034794241191558133,-0.04666372412736015,0.06988183386307,0.020237695101207803
1.826,0.06272214852561091,-0.18190005775402102,-0.006758663080515279,-0.035176112181282485,0.06823410598037083,0.024329895706828204
