time,V6,V1,V2,V4,III,V3
0.0,0.5927021494001565,-1.1282242593264946,-0.16893247332227,0.6845366651485222,0.5228092421779735,0.13763702551204585
0.002,0.5927021494001484,-1.1282242593264942,-0.16893247332226854,0.6845366651485308,0.5228092421779736,0.1376370255120511
0.004,0.5927021494001484,-1.128224259326494,-0.1689324733222678,0.6845366651485143,0.5228092421779791,0.13763702551205237
0.006,0.5927021494001484,-1.1282242593264944,-0.1689324733222665,0.6845366651485147,0.5228092421779885,0.13763702551204934
0.008,0.5681552339621083,-1.0535635634893554,-0.11221562669752072,0.6540784031895182,0.5208653571397636,0.11244691593712061
0.01,0.5464443402899923,-0.9926641073671856,-0.06389052367489037,0.6375188114122967,0.5268750991957662,0.09347045004586681
0.012,0.5236834072019856,-0.9333965367783675,-0.01563181917503496,0.6211633406158161,0.533673184846958,0.07459173036511395
0.014,0.5009937847518529,-0.8724718371049109,0.03247797212997672,0.6049595764502654,0.5407343227678512,0.05559965337739689
0.016,0.3752889566785226,-0.7122771535881846,0.07680068507032844,0.5343410636561732,0.4834777348055389,-0.0033581587216923586
0.018,0.26204804769428697,-0.5728844947060161,0.10933244429680569,0.4690598474962936,0.43661565784473677,-0.05067022866823039
0.02,0.14941478931173358,-0.43182023714476464,0.14355348436375426,0.4035520193124099,0.39309880787880097,-0.10003388852122293
0.022,0.03619788776976778,-0.29102633781855913,0.17640540675426794,0.33697017176318544,0.3463290202147568,-0.1467335288342561
0.024,-0.09471162106896512,-0.13628221429658874,0.2360527575389366,0.305493756600563,0.3342902465734741,-0.1987247000580663
0.026,-0.2142927942632064,0.008804328009927491,0.2937576399431143,0.2693320933177712,0.32779840636277036,-0.24206477406679577
0.028,-0.33521860176386614,0.1545166445709306,0.3523320210967428,0.23168512946649958,0.31887581526514064,-0.28896986993166496
0.03,-0.4547456875494079,0.3000631446334279,0.4099140945147915,0.19510952843517382,0.3120921690006742,-0.33212945557874946
0.032,-0.5231908443939025,0.4307525926014674,0.48851511815030174,0.16974370393877644,0.26520080264205576,-0.31737343434598225
0.034,-0.5903690200121416,0.5586613680838118,0.563383213001526,0.14896503078818635,0.232034855685079,-0.2991774425040355
0.036,-0.6577664609516021,0.6865059839008145,0.6388276242681385,0.13064118598785013,0.2024394824372175,-0.28244475877267045
0.038,-0.7249329942140817,0.8146487644200178,0.7139540866892174,0.10936683936380076,0.169063748512987,-0.26288855029332264
0.04,-0.688969601966575,0.9256743727812055,0.6535372683198764,0.06507610372063619,0.24832374987122002,-0.21333030638494307
0.042,-0.6614153712158062,1.0349021123230109,0.5866635888244223,0.020547001352428082,0.3196108535782714,-0.14984768258215891
0.044,-0.6337890816081828,1.1436320230163914,0.5193711180162056,-0.02281956021513965,0.3945078058922603,-0.08870992934930894
0.046,-0.6062639462865446,1.2529137098666265,0.4525892339770458,-0.06715903349962404,0.46648491119866065,-0.025495671500483034
0.048,-0.5683514869580939,1.2828718901076799,0.38316575285359217,-0.06973554372832257,0.4902014743600045,0.004767482746255789
0.05,-0.5337578148859132,1.3029867033253353,0.32194125413930735,-0.06730764075408913,0.5111957527851774,0.04387998421856045
0.052,-0.4983389998181404,1.3234297048406827,0.2614242814825581,-0.06483343581517696,0.5334007569474025,0.0813601763332694
0.054,-0.46255426023278623,1.3439303116008046,0.19952210954077607,-0.061454240167956024,0.554171837606491,0.12023199689119811
0.056,-0.41838161607454655,1.301697644605719,0.08566150890514271,-0.040695239956537926,0.5390953302983583,0.12803743228502606
0.058,-0.38646728367193156,1.2722293136260803,-0.017163014007860643,-0.03208861670670451,0.5125536056117433,0.1259443867293307
0.06,-0.35419329490324014,1.243951403110758,-0.12112415067858595,-0.02427194756821814,0.48714900063509536,0.12294993641758971
0.062,-0.3222820288628869,1.2144502956002643,-0.2239411723887792,-0.015314823704100396,0.46144173567941993,0.12095040890060935
0.064,-0.26154858624167926,1.1264937198579028,-0.35224401079098916,0.017688452274104045,0.5232255703486677,0.06100541267155089
0.066,-0.21272814100481124,1.0513024289169712,-0.47070399242344396,0.03878820551126,0.5749348312654511,-0.008929609156886436
0.068,-0.1652838086035649,0.97508623509671,-0.5881187130199244,0.060676161169775214,0.6260647113944551,-0.0785516105145906
0.07,-0.11665654906268803,0.900092101408414,-0.705767177063851,0.08130160359037651,0.6769683606439774,-0.1481066076933631
0.072,-0.0879347563899286,0.8188131888235693,-0.7275061251274381,0.08328729470861311,0.6456453035329273,-0.13626975460952565
0.074,-0.06764373378166043,0.7485305996320275,-0.7514005837809955,0.08249731449757577,0.6293671930953979,-0.12831018465980115
0.076,-0.04739326038916576,0.6786432201131324,-0.775357105168593,0.08233459715796765,0.6162824924546509,-0.12340075869403223
0.078,-0.02807887808160863,0.6084075934863366,-0.7994718746977022,0.08166687860370347,0.6004996580982597,-0.11551899234166434
0.08,-0.03454942099253713,0.5694446256676166,-0.7768934235483884,0.04366402224888406,0.5939709435152862,-0.11689560407554005
0.082,-0.03758124653880264,0.5371170443167971,-0.7664069347931608,0.016438035398335278,0.6032792961319918,-0.12035245478477172
0.084,-0.04061307208506816,0.5047894629659776,-0.755920446037933,-0.010787951452213241,0.6125876487486971,-0.1238093054940033
0.086,-0.0434649194736903,0.4725959388633812,-0.7459051797114891,-0.038312651881503526,0.6220695732807187,-0.1266782887279211
0.088,-0.04973157580486536,0.4132108177842142,-0.6898401952445616,-0.06772677120207575,0.5922155383756922,-0.1325187970263404
0.09,-0.05371643347327619,0.3513192924445163,-0.6429835106655657,-0.08427214919044043,0.5867861793649585,-0.13687579377987363
0.092,-0.05889248927210849,0.2881082736028975,-0.5957440546068937,-0.1001321865308854,0.5844813578678197,-0.14260243281803664
0.094,-0.06307753600620393,0.22546368780544201,-0.5483320736667439,-0.11709486036447413,0.5791337669406905,-0.14763971283939972
0.096,-0.057737487747138654,0.18186688493707553,-0.5146135024799241,-0.11985222813038442,0.5510993287355033,-0.13304064376767383
0.098,-0.05050708252621894,0.14079944652448326,-0.48877384972313426,-0.11936212700132454,0.5360734452209102,-0.12706401429656297
0.1,-0.0444347414901696,0.10094889280724131,-0.4621622747228294,-0.1199422187028218,0.5254013782266286,-0.12249918520644022
0.102,-0.03737476847690815,0.05995969742195904,-0.43558804330283546,-0.11941550309138532,0.5105483363184354,-0.1156880023523907
0.104,-0.03960563830002691,0.060360401087800906,-0.445311495677769,-0.12533958653951538,0.5074670133166019,-0.10401441084448579
0.106,-0.04247347338568896,0.05587972111202358,-0.45353477505836004,-0.12254152513754546,0.5186980552435922,-0.09356372729343698
0.108,-0.04544669858392068,0.051720959533822164,-0.46141472322674465,-0.12015156528468743,0.5299047667670865,-0.0844981812268239
0.11,-0.04831452574111375,0.047240265305911,-0.4696379921139681,-0.11735351230491381,0.5411357279888591,-0.07404750939573536
0.112,-0.036152145782213284,0.023979096755671746,-0.4777609377999303,-0.12183230267540943,0.5155090180280993,-0.06904654273826835
0.114,-0.03462670745807976,0.017956409937337235,-0.48257195346654985,-0.12736509150161765,0.490302352817001,-0.05733975494715427
0.116,-0.033326741523916535,0.01261328753527558,-0.48665317139914144,-0.13367930941880643,0.46525816475043813,-0.04855144743360912
0.118,-0.03175118135490655,0.007617669074650076,-0.4915265242833579,-0.13965946637866294,0.44084823175514876,-0.03701910720415097
0.12,-0.04263027505322194,0.011288651330430586,-0.4734028457838474,-0.14985460269978643,0.4535924870460985,-0.0745804739889466
0.122,-0.0503380657119748,0.020403864939544138,-0.464502986497652,-0.15468136119689352,0.46034808625141665,-0.09184431966365585
0.124,-0.05824813679596525,0.03007788555586298,-0.4549497737302682,-0.1597776607540908,0.4682432284649295,-0.11157250154681768
0.126,-0.06481535080329558,0.03929055077441532,-0.4462512500220667,-0.16475528463706285,0.4754391948847936,-0.12825859948327833
0.128,-0.07530565503674809,0.041489149907699766,-0.44508728787936386,-0.177714561333539,0.4470528978854893,-0.12868302079827668
0.13,-0.07628721858772615,0.042311861612680746,-0.44099279370314026,-0.1783344139770431,0.4471968087604679,-0.12631749817277427
0.132,-0.07726878213870418,0.04313457331766174,-0.43689829952691683,-0.17895426662054703,0.4473407196354463,-0.12395197554727184
0.134,-0.07825034568968223,0.04395728502264263,-0.4328038053506932,-0.17957411926405123,0.44748463051042486,-0.12158645292176933
0.136,-0.07438700140452764,0.0302993345807622,-0.4122217437118496,-0.162110278094807,0.43840932969445967,-0.11555341034280278
0.138,-0.07587851782070011,0.027950974536026425,-0.40752795356609417,-0.1540639021007187,0.4331112778173907,-0.10858891515324902
0.14,-0.0775359772523054,0.024202888824514924,-0.4023792450333381,-0.14626368979780455,0.4281543003292998,-0.10265343087373721
0.142,-0.07903882814655817,0.020698203522915716,-0.39774964306391536,-0.13752912179858973,0.4222759788349321,-0.09497202433487104
0.144,-0.08920065801562968,0.025310339990770144,-0.3982439817535331,-0.15141048271598437,0.4167437126703214,-0.0967904012622519
0.146,-0.08852187059546017,0.03146352643450865,-0.399745710763088,-0.1529995908302982,0.42301275766947327,-0.09361462613410682
0.148,-0.08803887107626983,0.038679340146343166,-0.4005714599679926,-0.15457873830518548,0.43213947573769934,-0.0930155297964493
0.15,-0.087333983834306,0.04535676165290947,-0.4021070252035551,-0.15650783212552755,0.4385287981651047,-0.08995763845551034
0.152,-0.08922056352572726,0.03146190193338876,-0.39384349000024693,-0.1742481195026796,0.4253102086233346,-0.0909928385950653
0.154,-0.08968599473198136,0.02382611522380384,-0.3927267396237917,-0.17814595244892073,0.4177109811705867,-0.09285532341573502
0.156,-0.09036353381095441,0.016653148222378747,-0.39093499719185126,-0.18126325990145226,0.4137559463680218,-0.09690250843443243
0.158,-0.0907767467665575,0.010066134631828958,-0.3898855726975585,-0.1858420353584355,0.4063972506421124,-0.0990016450376101
0.16,-0.07695579839396333,-0.008249930708131147,-0.37213102512862606,-0.17306306339653782,0.4280719969321388,-0.10630671266513898
0.162,-0.07122954962958619,-0.021370525725638276,-0.358649642773671,-0.15890650138877974,0.42767750086818557,-0.10597218627085288
0.164,-0.06571331233215354,-0.03400659627365956,-0.34449825702779624,-0.14420298826440667,0.43037099696544595,-0.10788456429544659
0.166,-0.059766743415311074,-0.04589049318812616,-0.3315156103440492,-0.1312230871172932,0.43004000802325515,-0.10741071279275612
0.168,-0.0571406492874094,-0.07266616987373146,-0.3289267304965386,-0.12437648960721334,0.41340719297994183,-0.0927326862082367
0.17,-0.051390255346760345,-0.0817051718275322,-0.33115070057503976,-0.11631155091622283,0.4120381345597125,-0.07604965233409497
0.172,-0.045796993347162814,-0.0904216006952884,-0.33287579422639135,-0.10749513080416918,0.4137673266217222,-0.06092150384618466
0.174,-0.039993719880620775,-0.0996225540325304,-0.33527089126866255,-0.09922566180873056,0.4124085265225183,-0.04354645093939464
0.176,-0.0484260235438747,-0.10730489551866172,-0.34339409968971496,-0.09578112262054646,0.4373847342417473,-0.06264913342142601
0.178,-0.04764573795948913,-0.11006205727971569,-0.34753310038744584,-0.0939988668577843,0.45590191644049805,-0.07612169361547531
0.18,-0.04682160692651431,-0.11261968228885656,-0.35200127220019317,-0.09180715070767922,0.4763745775244129,-0.09174615747171445
0.182,-0.04589007728758379,-0.11547725802786431,-0.3568176698521748,-0.08944103357860855,0.49631503571135016,-0.1060476850359252
0.184,-0.045703805989431946,-0.11629819758032414,-0.3751797633339223,-0.12473818844689337,0.4434899723513257,-0.11503206969272288
0.186,-0.048579319103072324,-0.11607279714844315,-0.3793584440670849,-0.1461273102619809,0.4185547559043971,-0.12194458807392276
0.188,-0.052267305816649304,-0.11652974207594813,-0.3844525277173057,-0.16818332979919315,0.3939914430397295,-0.12971175167266005
0.19,-0.05592522714460891,-0.11702956254235333,-0.3896409193620658,-0.19054590465731935,0.3684598693337437,-0.13724186313530248
0.192,-0.04858734971889586,-0.14397570190961098,-0.38086974597948375,-0.161012949041754,0.3664148945739259,-0.10611220353809937
0.194,-0.04872882065458056,-0.1613241976050121,-0.38256936087456633,-0.14332251290738304,0.3536430585060699,-0.08734380100367148
0.196,-0.04899177442684883,-0.1783400623383931,-0.3838761378672069,-0.12577019260714356,0.3416095489074589,-0.07004790172622445
0.198,-0.04907901861849656,-0.19461781724705007,-0.38564797327147976,-0.1089943995536617,0.3285217112659685,-0.05157835216671185
0.2,-0.042762242300437195,-0.2034419547774112,-0.3772583706712054,-0.10190163639848955,0.32969544879773166,-0.06375592591066735
0.202,-0.043662133088654215,-0.20411224101852724,-0.3749022585272867,-0.1004080685047821,0.328827589221151,-0.06669526328723707
0.204,-0.04456202387687123,-0.20478252725964322,-0.3725461463833682,-0.09891450061107458,0.3279597296445702,-0.06963460066380685
0.206,-0.04546191466508826,-0.20545281350075925,-0.37019003423944974,-0.09742093271736707,0.32709187006798957,-0.07257393804037658
0.208,-0.05111815034526922,-0.2164529540728962,-0.3841165356460231,-0.11767810742082298,0.3148895243856392,-0.09167006652920938
0.21,-0.05079430512359887,-0.21851496366692416,-0.38597702812765244,-0.1240912844858658,0.31292110088944336,-0.10227031452288834
0.212,-0.050692813206163534,-0.21986477968090504,-0.3871151146153381,-0.1316362225075462,0.31028084140074336,-0.11588211094961158
0.214,-0.05036687950718764,-0.22190507026147305,-0.38898060625490066,-0.13828296552748648,0.3077562981207948,-0.12654455144418206
0.216,-0.056377664565648716,-0.24448385690077665,-0.3697262179133021,-0.1255308647370501,0.31615033734679254,-0.11761248491828706
0.218,-0.05872908316070238,-0.25377038950822783,-0.36266967865369687,-0.1185286668901656,0.3132616031036404,-0.11605643362678286
0.22,-0.061132720006407,-0.26410569523471417,-0.35554581351192893,-0.11084552653253874,0.31013233713364924,-0.11426373055277063
0.222,-0.06353635685211159,-0.2744410009612006,-0.34842194837016116,-0.10316238617491186,0.3070030711636582,-0.11247102747875848
0.224,-0.05482008727271241,-0.2801775153181878,-0.328240400816901,-0.10884993144831534,0.29454499049739,-0.10221710959341154
0.226,-0.051582982699859795,-0.29060043460961266,-0.3217165604035347,-0.10947085906924153,0.2948237527383442,-0.09029841125533468
0.228,-0.04873908267818784,-0.30070523868503196,-0.3140440188862108,-0.10889590790000972,0.2988509962559491,-0.08112140190757107
0.23,-0.045677806493846375,-0.3106327680541494,-0.30708322951419365,-0.10823197695739833,0.2994625703349967,-0.06978564911495033
0.232,-0.044106398511307605,-0.2989191931891047,-0.31260733069800295,-0.12665880637573437,0.2942252182085613,-0.09174693688019575
0.234,-0.04421814302460688,-0.29360381030527966,-0.31144429036298976,-0.13573909211377103,0.29878252070629485,-0.09852535153564726
0.236,-0.04449227275412264,-0.287848547314986,-0.3097572446368913,-0.14496377208163777,0.3044179106934011,-0.10725564480678815
0.238,-0.04457888740211483,-0.28202000113786196,-0.3086255279896409,-0.1542671172885127,0.30937374986135774,-0.11412062943158251
0.24,-0.05254557853158099,-0.2602400988794833,-0.29673418510743593,-0.15780588594729844,0.30060231802136517,-0.10886041538378284
0.242,-0.05866244155308483,-0.2523841521500142,-0.2929192130958422,-0.16432349602544175,0.290065102965149,-0.10526388578158896
0.244,-0.06492999063204248,-0.24442781067126715,-0.288918080746366,-0.17009875843872596,0.28151764517595385,-0.10455804974087204
0.246,-0.07115774113245688,-0.23626721625818223,-0.284801889178572,-0.17688492820335514,0.27003125482879475,-0.10125008854338102
0.248,-0.07244932232610639,-0.22577859311996337,-0.263529753861443,-0.14747770752242906,0.29055058552827795,-0.10078402544584805
0.25,-0.07179279853167972,-0.22039396211725396,-0.24734244838506758,-0.13229720549371154,0.29875029124816976,-0.09179422485306782
0.252,-0.0708990782544868,-0.21528142559336913,-0.23210555580243186,-0.11698548344190939,0.3065814769026065,-0.08279726921858371
0.254,-0.07024367298087836,-0.2099074418345908,-0.21591576370636772,-0.10168834169548455,0.3150590431642815,-0.07377658994277508
0.256,-0.08891476835469769,-0.17645013784718183,-0.2042045057065854,-0.10040755119267204,0.3215357178153779,-0.09801339512860967
0.258,-0.1035132800680682,-0.1542168982341209,-0.2034688995552329,-0.1033990108454783,0.3310604457969679,-0.12165272733373474
0.26,-0.1190965595621064,-0.13306065505578626,-0.2030252782333865,-0.10593022250899005,0.33966619991686225,-0.1447460229708239
0.262,-0.13465003968833367,-0.11149582947157997,-0.2025601094378631,-0.10962509619121469,0.34932454585517586,-0.16810606256348767
0.264,-0.14497014790510382,-0.09126443702493445,-0.19924144333197671,-0.1183260883134758,0.34556036123579126,-0.18721919997186295
0.266,-0.144773964110751,-0.08287425224578686,-0.19948999619835897,-0.11486627570352168,0.3544995932932578,-0.18866024122511893
0.268,-0.14482437496297237,-0.07488524155798766,-0.19903812602524146,-0.11193027090547958,0.3621143165738159,-0.19257693449192498
0.27,-0.14462609476284508,-0.06647335201751409,-0.1992916675561894,-0.10870403267261955,0.37049734814231217,-0.1940801799660329
0.272,-0.1516649234501819,-0.06251011624877179,-0.1922873327964911,-0.08406217942463337,0.371249380501459,-0.16917527475692645
0.274,-0.15700186188575668,-0.0647658364349923,-0.19217468764833734,-0.06502808366916002,0.37464181984418665,-0.14869279457182646
0.276,-0.1623910185719824,-0.06807032974024795,-0.191994716618021,-0.04531304540294401,0.37779372746007517,-0.12797366260421852
0.278,-0.16784493103993023,-0.07115900392627998,-0.19160380598419652,-0.02599954221233641,0.3805847802345453,-0.1081584402536605
0.28,-0.17291600856360373,-0.04816326739134613,-0.21000829098558957,-0.028628901253129373,0.3763431023178485,-0.1187554726868987
0.282,-0.17076381758791154,-0.03932758401488406,-0.21689595771433853,-0.03285277554618587,0.36967033736627913,-0.12127461207201892
0.284,-0.16900282802183275,-0.029864618161912708,-0.22234171636891448,-0.03680672872911805,0.36562994912014757,-0.12544887176051006
0.286,-0.1668366327994322,-0.02106136636335457,-0.22927389062996617,-0.04106702278225744,0.35875064707958987,-0.12781845287219354
0.288,-0.16991011804271464,-0.007885361763802478,-0.2543676678714735,-0.04094551313239785,0.3787909850463113,-0.13469679286886224
0.29,-0.16747234600647498,-0.005015277584689321,-0.26368314845979157,-0.032255122854245484,0.39503689266401215,-0.14017844818336786
0.292,-0.16524066653048547,-0.0019050785674716397,-0.27214490623769244,-0.02411928225304838,0.41040478544734593,-0.14546109377802652
0.294,-0.1627878912242126,0.0009437527874994168,-0.28150758071246507,-0.015582227491589261,0.42616689574318284,-0.15082393838356623
0.296,-0.16573275438051713,0.009599923366815297,-0.30432578957218337,-0.0068454811415948535,0.4174971362690075,-0.13834035424340732
0.298,-0.17208258629589762,0.015881915327487728,-0.3174616955764462,-0.012233322891118151,0.39926184568553996,-0.12776511939251575
0.3,-0.17860709718346893,0.021436707613750126,-0.3301349357512277,-0.016961403304643297,0.3818026897916651,-0.11839441047827347
0.302,-0.1854138622877447,0.029780101076089412,-0.3412651621683109,-0.013355603912017509,0.39658974934225594,-0.11261222098645576
0.304,-0.18218536802449137,0.024096870686274238,-0.35396444890418327,-0.03246064992543877,0.4104166614056973,-0.14001212247754846
0.306,-0.18262188726756928,0.019117969914302372,-0.36757102368203126,-0.0335863542099872,0.3988868563050281,-0.13404678738573597
0.308,-0.18675337714300694,0.009592875285419597,-0.37242131349516217,-0.033254069865610435,0.40455978873741927,-0.12913195490291154
0.31,-0.18976022661519865,0.014163387004264897,-0.3771913050613092,-0.05599551398171682,0.4019494890747721,-0.13617823720695454
0.312,-0.2007946437068579,0.023384687923233758,-0.37681033781343837,-0.045710272955077375,0.40890952733930086,-0.16237291328047923
0.314,-0.20099071785895664,0.03094106045089814,-0.3774057380512057,-0.02577908242945167,0.4462239977307067,-0.1754065236248176
0.316,-0.20063504618581252,0.041257668833918335,-0.3783258790296315,-0.009999879205367813,0.47351805548916265,-0.17247004231604
0.318,-0.205008427802467,0.04396493675854244,-0.38181583625620136,-0.00273997609943466,0.49950497143351424,-0.17997302531650572
0.32,-0.20961008892230507,0.06602091108536967,-0.4010040454244106,-0.005222914531876989,0.4724829084153053,-0.17214724076902496
0.322,-0.2070497760390009,0.061729999869101666,-0.4087316393001645,-0.0013493484803213938,0.4712430101666364,-0.14785469689218178
0.324,-0.22390111397086065,0.06453765151328675,-0.4186709539487584,-0.016588524715968438,0.45056264214212305,-0.15131554785782944
0.326,-0.23987088568103176,0.07061225937328051,-0.4341287502871828,-0.026909793354519394,0.43612161446434633,-0.14152641245050668
0.328,-0.2261905529823054,0.07227714842574552,-0.4466803963593257,-0.012318732563325009,0.42324973549643624,-0.12305201673841955
0.33,-0.2208731788306922,0.07462330098616521,-0.44639379886674746,-0.02039439178999207,0.4119457152429506,-0.12737050002219794
0.332,-0.21611447192726627,0.07077410807083416,-0.4444346754823694,-0.040398609033042474,0.4230873180595564,-0.14707051102519056
0.334,-0.21619325058557937,0.07523467823307843,-0.444469604982482,-0.0185611302815441,0.45851984941606116,-0.14357761192938864
0.336,-0.21423962721771003,0.08870867391493853,-0.45149723862771635,-0.003613344907809236,0.46163025579799977,-0.1447721554758924
0.338,-0.20861096822557995,0.09379770720114149,-0.45540673231009327,0.00011576174506966401,0.44604127392984483,-0.15895314064795657
0.34,-0.20572630754826773,0.11320636498900137,-0.46642148502643527,-0.0009856160381928381,0.4503346940452517,-0.17935291240673493
0.342,-0.20351852521273683,0.13380001965298496,-0.47391312726207346,0.0014906972625972979,0.4677719396792988,-0.19054311836111698
0.344,-0.21688862331882178,0.11131993276164262,-0.46638293034074846,0.01725328241269029,0.44491095603410763,-0.16716275708314632
0.346,-0.21593608746568416,0.1035102051298791,-0.4698119225649928,0.006081621758455059,0.4073682309924325,-0.151143241137982
0.348,-0.2310378959862723,0.11463018573457978,-0.4878373444556391,-0.0108670972828698,0.3671201330193392,-0.13721248003257505
0.35,-0.23186423295566985,0.11454664480088146,-0.48566705349979317,-0.016066585285359144,0.35019358796499606,-0.14177298272760566
0.352,-0.23473830736160736,0.11485704205845165,-0.48848256054433226,-0.030429446123282723,0.38867166941249504,-0.15747061289457376
0.354,-0.23267237454568626,0.10826348300532723,-0.49556349412122025,-0.045680384892924406,0.3654705592614449,-0.15046641584581522
0.356,-0.21364663692191663,0.09222343964523413,-0.4929015429404073,-0.04947200202940046,0.36885596700997236,-0.13645636910742284
0.358,-0.20509208662311207,0.07673665732340947,-0.4883356107418799,-0.04099572698752759,0.41100861976962627,-0.15010214733740612
0.36,-0.20245352369125016,0.07268251427179608,-0.46555695367181965,-0.028569729511596247,0.45481463649453685,-0.199907958451849
0.362,-0.2232954588501325,0.10569552422226591,-0.4650929834644989,-0.03970985401141042,0.480844738423653,-0.2438966420673942
0.364,-0.22636857476374764,0.11429125048890144,-0.45473691524465926,-0.03320161412331902,0.49936593427316206,-0.25951176675027454
0.366,-0.2245778894808121,0.11974959913421072,-0.44365663788052345,-0.00802183646722395,0.5043591274355862,-0.2500330973190049
0.368,-0.21864444172808964,0.1110814654081981,-0.44695655304143056,-0.003890200325025531,0.48050631359119295,-0.2219349772052537
0.37,-0.23101580640970704,0.11639683536823545,-0.4585295533184529,0.006681124591760329,0.482440853887367,-0.21260179873756882
0.372,-0.23607124017678763,0.10523918005448267,-0.4596475422791563,-0.005139257558818466,0.49933463259904337,-0.2254743865385371
0.374,-0.24908112962633538,0.09903183682951984,-0.4656743767370923,0.006607589361338981,0.49911122590107687,-0.21299293098219135
0.376,-0.23909630560639997,0.09071188884500239,-0.4717988347461942,0.031090525258671172,0.48427540413258857,-0.20315732363943964
0.378,-0.23771100359342442,0.09802420062080695,-0.4761070014904619,0.02581742394469979,0.4484381360649506,-0.19452295288548793
0.38,-0.23625755728338843,0.09744722109987823,-0.4798586588571597,0.013918104506518971,0.4347978291290345,-0.18841646174354743
0.382,-0.24323825809660682,0.1151588845771577,-0.4876129071848534,0.029105128783991713,0.4257754096238894,-0.1755652279773939
0.384,-0.2599718303848415,0.12450219790325741,-0.48276809636424617,0.02126985371532276,0.4401027931173843,-0.18715621711833766
0.386,-0.275802513611041,0.13057803706293455,-0.48112366770939563,0.012298538176947435,0.4708440595084984,-0.21209495525356517
0.388,-0.2780937229295598,0.13268404105387652,-0.48782301907479997,-0.001697013373009753,0.4801046590388929,-0.23290099481068596
0.39,-0.2854453486039571,0.13260191965823578,-0.4790129839695427,-0.006563204299116997,0.4861545713457558,-0.23397742345701864
0.392,-0.27873986641015047,0.1302069585246908,-0.4863553479698243,0.009628737920323472,0.49967422450302895,-0.22923903940584905
0.394,-0.2764510798088485,0.13538919180143896,-0.4938589469897987,0.0005859705413518333,0.48286646113474346,-0.22439206827874078
0.396,-0.2820176010998244,0.1399722648522041,-0.5088360194779978,-0.01576556048682354,0.45334323454059505,-0.21370378286875
0.398,-0.29295409759859675,0.1439272882431257,-0.5072561468526678,-0.018223940474408586,0.46001725550015227,-0.2294857788886086
0.4,-0.28544692889192924,0.13439205439798096,-0.48115797158668694,0.004229515350056983,0.4360693613270446,-0.21526200402761406
0.402,-0.28176435112746884,0.12970181404477846,-0.4764062704842229,0.013733254158642075,0.4282584369900719,-0.20315982627363033
0.404,-0.2804769958738354,0.12763410297634808,-0.4663253553423933,0.02223740072170999,0.42487329281008596,-0.19435119595367037
0.406,-0.27737347147322666,0.12425979278835067,-0.4588029178192783,0.030606834169625247,0.41747074620775826,-0.17988674752973466
0.408,-0.2866429330443548,0.12458414548593934,-0.4620015766972646,0.0318420805224526,0.4068878164198252,-0.20348119967376926
0.41,-0.2929085713904528,0.14035236500856504,-0.47577831093485684,0.014412165394320352,0.42152761300474373,-0.23133523291584862
0.412,-0.3001675305251694,0.1481706604250474,-0.46974596305681166,0.016051621839541733,0.4287140668654656,-0.2554914038072695
0.414,-0.30452979682174686,0.14373541348949115,-0.45616670073316773,0.05134213870861971,0.47209288837766866,-0.24994910136704995
0.416,-0.2926365443121205,0.13080565437282332,-0.4451806005329366,0.07834878159974787,0.4678964882005086,-0.221709966094926
0.418,-0.280087873613055,0.12004083507263343,-0.4391610772294854,0.08608508786904435,0.44210502753113656,-0.2053022722450234
0.42,-0.2652755003237746,0.10799693969991808,-0.43805268868506086,0.10511928184122092,0.43120772335790625,-0.18999506768080496
0.422,-0.25152399259988656,0.10192182482034931,-0.43640654437998627,0.12279644602226605,0.4294538298162813,-0.17926316422496652
0.424,-0.26714442320399207,0.10236998930859607,-0.4325561281461915,0.13176295595882173,0.4153402451200236,-0.16639697686248914
0.426,-0.27330248491506404,0.09517710842454856,-0.43071089928705897,0.1339697127044876,0.4058951578667477,-0.17100282796132707
0.428,-0.2781562784404925,0.09568217024908937,-0.4343333575309366,0.1382982547508288,0.41849416807503687,-0.1907542966969391
0.43,-0.2857687571656755,0.09669297878584235,-0.42673361398109183,0.1279084256289363,0.43021668073914604,-0.2174470981100601
0.432,-0.2928813127951909,0.08929160548110478,-0.42206310942347275,0.152426954545234,0.42989659932819674,-0.21075006355744522
0.434,-0.29172786669788403,0.08689758766155962,-0.4073253475754106,0.1688938143884317,0.4041284576187567,-0.1790381059021984
0.436,-0.2900320439842812,0.0781629958723319,-0.3975033028347939,0.1945541421882172,0.4231443290715308,-0.1692260858328933
0.438,-0.2935141371410355,0.07802042077741539,-0.387115270489436,0.20235818708808936,0.42404603565685645,-0.18218394864014778
0.44,-0.32459134485283886,0.09430041065686341,-0.3208963635347037,0.288141070244928,0.4931502847367956,-0.226541379502163
0.442,-0.3362458944180612,0.06714029595110596,-0.3131482275978836,0.29331744777965585,0.4290969318834561,-0.17186077964702567
0.444,-0.3429912427114591,0.02100000881619507,-0.3283118363485348,0.3096783677191936,0.3396335721023191,-0.07807158985316796
0.446,-0.35722659972503035,0.01045470905081492,-0.33628013712033844,0.28106838437584275,0.29785592381877213,-0.11200053635007783
0.448,-0.35877477891290527,-0.006876424415085516,-0.3218052592424255,0.3202378110088914,0.43158993034066334,-0.21890227865194947
0.45,-0.308889435252464,-0.12026292385795201,-0.29643120325454503,0.4353504979314077,0.5626751433719969,-0.2063660817984236
0.452,-0.2356302308881607,-0.2836748301015879,-0.3018699169597966,0.5275850209849605,0.5221959830702958,-0.08626502296183489
0.454,-0.1333192938843867,-0.44420821569662267,-0.33592562274252086,0.5858606149234488,0.4564501329510522,0.002220098250257838
0.456,-0.012201050135475984,-0.604035232454014,-0.35011590518075797,0.6912645368842816,0.5487776514816792,0.051373688933994126
0.458,0.09773799326383434,-0.8184372502880725,-0.31482989593375016,0.8423253491120554,0.5775905405834285,0.1361690554257973
0.46,0.15702217015776088,-1.011806886449312,-0.24562508078387488,0.9403975880736465,0.48563403118609266,0.15142340484760838
0.462,0.18037025117285163,-1.1433901758692324,-0.1874619902070835,0.9753762335191039,0.4457428376767545,0.07820508107556064
0.464,0.21767508511266181,-1.2525657890526851,-0.1055126968259539,1.0326548643101012,0.4510828942358235,0.022495145321336
0.466,0.2435680054642129,-1.3405461557161462,0.03559694762242131,1.1441651225715983,0.3787043543093508,0.03917062386820652
0.468,0.24670331714812574,-1.3931438368323177,0.14010907029466868,1.2171171989942415,0.2682222046450545,0.11611275075090104
0.47,0.2358595829732087,-1.284133736080885,0.1455365766154656,1.1618139841038198,0.24195606179690177,0.1887928086649295
0.472,0.17863576662038538,-1.0179029258448087,0.1442376790665033,1.0368789997917227,0.33685821748320127,0.15776550450905022
0.474,0.08417439089588459,-0.7700260988302218,0.18137345779394265,0.9134269064907764,0.387544505903611,0.051701247006935305
0.476,-0.04467681379232179,-0.6005731202558144,0.20080451150649253,0.815237719166044,0.37447618845419156,-0.059411581301160095
0.478,-0.2138162551782022,-0.45688201988049315,0.24719927390187454,0.7770454100097082,0.3190714591061338,-0.12397572712833436
0.48,-0.4040053164824177,-0.28791840140272035,0.3513606772133257,0.7580164294226228,0.2711556002614624,-0.20756593625006836
0.482,-0.5590304737762294,-0.056688635748833385,0.4001110694148569,0.6509554700906305,0.3090779540747631,-0.32369338841262835
0.484,-0.6892236743148364,0.17894780962993287,0.38261208327707447,0.5170136134143835,0.34015299335358196,-0.37736109208398
0.486,-0.8041384961878415,0.32780196685414154,0.4219330656229934,0.4700543531758452,0.2718624205735135,-0.38680850051724586
0.488,-0.9050057392862121,0.427925035023255,0.5139110753413104,0.42554021408873993,0.1304252268134718,-0.43042527706537764
0.49,-1.0158966997593306,0.5498121691913375,0.6091221166356933,0.38053116603212733,0.05389375835385726,-0.4768234846496715
0.492,-1.128434853787677,0.6679956401239951,0.732890079627921,0.3617934715844192,0.004239482288237063,-0.4795583478973242
0.494,-1.193480437381792,0.7997431303148295,0.7900718935334511,0.3577573436935823,0.006694735809780048,-0.4295364069709491
0.496,-1.1784782177484672,0.9833894052583209,0.7407561937280839,0.3189010931095899,0.08543327250566653,-0.3319166278440428
0.498,-1.140971166822426,1.1872566680340892,0.6521048041830746,0.25854775706947175,0.13085177049001698,-0.23981548628843122
0.5,-1.1016318212628604,1.2888042101162935,0.59517144096516,0.23556537516625958,0.17797575421133843,-0.15263498108406512
0.502,-1.0617711815866526,1.318584732863942,0.5629319308612429,0.25813401323865903,0.22848004621683468,-0.06917040480287767
0.504,-1.0344313779897825,1.3877777298836946,0.48684639552908265,0.21488148517080885,0.22414833373792858,-0.02506300410346537
0.506,-0.9896154244393957,1.4814394387828158,0.3818708142382832,0.1760090456922521,0.2768867633213331,-0.05905324462848199
0.508,-0.942107849521198,1.5058240301983563,0.3106552676871592,0.23647070710093182,0.42862169977509085,-0.03233317753632432
0.51,-0.9039383606378624,1.492817507691483,0.2720102480699033,0.3258896954809478,0.5035397240062348,0.10490476375012654
0.512,-0.8662254689552599,1.4950884368678716,0.21705150889196675,0.35481398096523187,0.48569816939451843,0.18182339979072057
0.514,-0.816701215086641,1.4848598618787527,0.10890083337877582,0.34890735922687477,0.48508816125998405,0.17373726552680746
0.516,-0.8061276134662916,1.462857143335004,-0.025142469832742865,0.31847065430091676,0.45818073128554193,0.14084136113667833
0.518,-0.7919301996661924,1.4150789801526362,-0.16464210323724773,0.30764790164612926,0.41562836511239076,0.08654661621600375
0.52,-0.738720468493756,1.3356010046501576,-0.32357610076406484,0.3795801251509982,0.4087241416587343,0.034737636574503766
0.522,-0.6550555322217689,1.2222012334741184,-0.4656689831943172,0.46059870268028513,0.43251684466463863,0.025134522902071858
0.524,-0.5830399526576328,1.1063450927460374,-0.6012408577758402,0.48250407620438673,0.4573131936681314,-0.030622777426007854
0.526,-0.5320106979465278,1.0016008568875847,-0.6959733563901308,0.5094717387416386,0.5341566611573791,-0.10486571041052078
0.528,-0.47898382018139163,0.8929138104446988,-0.7554917692557324,0.5482846876375448,0.5612242559622366,-0.10010127544431657
0.53,-0.43428214862876713,0.8093875853054682,-0.7976943413481953,0.5500722034574698,0.5628153790112431,-0.09502454718681792
0.532,-0.4201293226645409,0.760073184930867,-0.8012158415017813,0.4930911054473847,0.5751481335516461,-0.21014254617100014
0.534,-0.4245856671955849,0.7119585185469471,-0.7924464251349052,0.44704457129594105,0.5682457237214222,-0.2853732896285749
0.536,-0.40271294297397486,0.6437652003129288,-0.8310100712774415,0.42313394733010123,0.5051811023693965,-0.17839477325701897
0.538,-0.3776503383323735,0.5712166519859948,-0.8157981706379811,0.4250769302397253,0.47457599853296034,-0.10668753338616663
0.54,-0.3492926767748456,0.515549789521549,-0.7279336458777346,0.4477795088498309,0.45141857506069116,-0.1300021174645726
0.542,-0.3487638541742234,0.47498442945480407,-0.6629341163887081,0.4340419983732522,0.43203582200654994,-0.14338897218330882
0.544,-0.3578947924057708,0.437275104203486,-0.6475257946612877,0.36395381373184016,0.40124476899233297,-0.15693298689801577
0.546,-0.35690342319835344,0.3582028332774599,-0.6026236256044134,0.3702596497876331,0.45355089061960246,-0.16164626107893018
0.548,-0.3525674704544895,0.2895292549986503,-0.5186989957667836,0.4208004306830955,0.5343402076836405,-0.16046002257170108
0.55,-0.369986921508209,0.253863694519219,-0.5102163413396907,0.35872705929758925,0.5522821043533679,-0.2289198201888443
0.552,-0.3958895542009072,0.21177814230616027,-0.5296908769438871,0.28463278724357327,0.5043045584354419,-0.26001035754999735
0.554,-0.3791093131945658,0.1445746748842689,-0.5020425715043882,0.3378818825770161,0.4376302483423706,-0.15208163465570468
0.556,-0.3783522276412052,0.1300048299071311,-0.5048427600442122,0.30592897060297247,0.40588402174303667,-0.15932187222427013
0.558,-0.37755678029554224,0.11975653229914839,-0.5086930915294922,0.3023721914857756,0.4028754280704807,-0.15431519996352336
0.56,-0.3813498753220891,0.11590683416005804,-0.5142785729140827,0.30233290510993294,0.39428700965779667,-0.15198099847049265
0.562,-0.3806714753917301,0.1057990743120627,-0.5171119581047589,0.2922126163939607,0.3979731987666258,-0.15573275798373523
0.564,-0.38305575472183384,0.10486470857087193,-0.5238208752793845,0.26636624316740454,0.4395840892832866,-0.16739646877658884
0.566,-0.38334559729047646,0.1204768010922423,-0.5214140351099269,0.2686895885104987,0.4323687765947764,-0.1704927600487289
0.568,-0.38590455447883837,0.12723807979060608,-0.5315608560368551,0.24733001808429877,0.41704324312460384,-0.20196828819467857
0.57,-0.3988796622320777,0.12395475200325125,-0.5375537365115318,0.21197126063350213,0.39642994775527873,-0.23564399776247152
0.572,-0.3798973281932556,0.09879211642125507,-0.5367975100575261,0.22396790175018538,0.4113604426877397,-0.23088995170804905
0.574,-0.3696747910325575,0.07504969786806052,-0.5368756130166363,0.2295118249327391,0.41349114582212504,-0.21630956935546972
0.576,-0.3693093243228305,0.06220052799770854,-0.539273775345167,0.22551273121652565,0.4218535914662883,-0.21443694459159568
0.578,-0.35659838902062857,0.05694405965309964,-0.5472756460259255,0.2171926925541729,0.42081907424078524,-0.21203634963289514
0.58,-0.35131389550656955,0.0417671795771417,-0.5185157859919884,0.22502354073042025,0.4072103546019636,-0.2179351904487811
0.582,-0.35127149356018034,0.031829442790267136,-0.4996688667163043,0.23461606005693603,0.40770069950776044,-0.20111685979287464
0.584,-0.3478647732779684,0.012752762985042507,-0.4927616175273162,0.23906473667082287,0.36835335143015147,-0.159526914303912
0.586,-0.3463267322757105,-0.007624606535852308,-0.48315114819162674,0.25371792191905534,0.364432033799048,-0.14667546767515913
0.588,-0.35907648418645105,-0.01993251180383263,-0.5110367767974558,0.23924343701306358,0.35689679673787456,-0.15263361018582808
0.59,-0.36271963768152754,-0.010089888148345848,-0.5144954474066389,0.22590710450902426,0.3520620196224348,-0.16069782324012444
0.592,-0.3651746082771253,-0.009091098173604357,-0.5182391165582749,0.20425333870829604,0.3499649712275991,-0.15878999090405307
0.594,-0.37064714468105847,-0.0158520870706688,-0.5181671745531033,0.21169380198641427,0.3574646751575602,-0.15936507768283903
0.596,-0.37072622958436474,-0.018475286143490414,-0.5002058940519329,0.22261209574771154,0.347233425228795,-0.16041703011625516
0.598,-0.3684337075406841,-0.015113406946785233,-0.4948359714597388,0.23582301799870414,0.37008194010240125,-0.16889662253680876
0.6,-0.37538801164022306,-0.02036882688153307,-0.5035454027213433,0.2265708558691874,0.3923953712278983,-0.1824627785031623
0.602,-0.39681209179900695,-0.03658835631117286,-0.5210423629627249,0.2123518207999851,0.39352211210781474,-0.19429714658108077
0.604,-0.40542606602536085,-0.037480240166292304,-0.5421130366311988,0.19522423695238053,0.4002391145931726,-0.20352987137218462
0.606,-0.4065783930718666,-0.03413694020259499,-0.5380302030451202,0.17892158882984516,0.3859036931715202,-0.22215431589336349
0.608,-0.4007966960764215,-0.023201211074337754,-0.5227167708272198,0.1771704923519626,0.368008747869981,-0.20898984534878726
0.61,-0.36852493961806715,-0.027658159231350433,-0.5081121578590998,0.18336119222843736,0.33866839690304845,-0.19505233941566227
0.612,-0.3795955801479459,-0.051470443174325746,-0.5100318379792459,0.2239643701086679,0.3466907175556605,-0.16765956863739084
0.614,-0.37208215696752545,-0.0795486499380688,-0.5041870272427982,0.23660943985614305,0.36146451932925,-0.16751075439794183
0.616,-0.35955855274933834,-0.10391662311807263,-0.49362761386596493,0.23496335373119112,0.3132952067664882,-0.11916726431681494
0.618,-0.35255897850115653,-0.11365738702230023,-0.4653139739623902,0.2597007645047323,0.32592082709725806,-0.10931333869765218
0.62,-0.36410640964120394,-0.10310774577568015,-0.45820092034070253,0.24819265132088486,0.3052753857406278,-0.10396959882339163
0.622,-0.3649189567274726,-0.10835662091576753,-0.43489413828359325,0.23999927625205697,0.29312287289819355,-0.09892376085317607
0.624,-0.3663449413638728,-0.10869086759527753,-0.4141996437179831,0.24740100706291204,0.28512006363522974,-0.11382760944885074
0.626,-0.36713002008019996,-0.10149823218544182,-0.4107238740450882,0.2559895178249353,0.2865902408906356,-0.11993215882252042
0.628,-0.36309363237712294,-0.10872009317382367,-0.4082589996426702,0.276014804052929,0.3036791516738571,-0.11376700435775444
0.63,-0.3618709648881755,-0.11742754102112087,-0.398127073844351,0.30868019344047753,0.30001302927692397,-0.11480911016741507
0.632,-0.36385067095538026,-0.12892055307554148,-0.39345937957920063,0.31811595873476384,0.30080710943179895,-0.12057517201770947
0.634,-0.37062424597948296,-0.13424546094131717,-0.39042888200560255,0.330568959043855,0.2893044834931612,-0.1282923571605944
0.636,-0.3625909684473049,-0.1595576437267018,-0.3872951189510361,0.33832033041132425,0.27175305368541347,-0.14177043044389212
0.638,-0.3616425991626974,-0.17703628225150028,-0.37804381349515287,0.35146260029565185,0.2807073785419401,-0.13540019415089463
0.64,-0.36297275660237294,-0.1951641894934007,-0.3730418211733705,0.31647501416138113,0.27047672629926844,-0.1499811901168547
0.642,-0.35595479484144144,-0.20277397557670754,-0.37953398285776646,0.3196664549796678,0.27003352309030115,-0.14548826317400934
0.644,-0.354378338414325,-0.21835273718311354,-0.37088940315946567,0.341104974221621,0.2301723931711301,-0.13017331337685267
0.646,-0.34595381904527817,-0.21101013572011543,-0.36318432852187293,0.35313467438780854,0.22440857817093526,-0.11980701430706804
0.648,-0.35015235128658045,-0.228177359218886,-0.35145284004490496,0.35943872756579426,0.21356268983532378,-0.1222230262836125
0.65,-0.3457970382083038,-0.2449409089260418,-0.34979671963554887,0.36146350729957516,0.20209312830247103,-0.11755707082530567
0.652,-0.35047267146382677,-0.2627159027414543,-0.3574125813385107,0.3864639933455562,0.19276795662000218,-0.12432016883226592
0.654,-0.3522583717274378,-0.29885049748097237,-0.3873199883458573,0.34755220341058907,0.18593357155211346,-0.12849360452849842
0.656,-0.35745862214210566,-0.29071374588923865,-0.4094322684319932,0.3358885855501188,0.16477415598374903,-0.1553499235657512
0.658,-0.36805737790817306,-0.307347357206332,-0.4088354968902831,0.3391409436724851,0.15787196984518215,-0.15702469827965032
0.66,-0.36917493120201483,-0.3371309228567823,-0.3879675217501913,0.37451547759986176,0.1618529422620737,-0.11759891936786232
0.662,-0.3674814333698294,-0.3421588434907156,-0.3814530562647169,0.40781960785518473,0.17826666605132982,-0.10302111484806581
0.664,-0.35321402226057863,-0.33075309083101223,-0.3756013782939857,0.3960695294793748,0.13897373950422712,-0.10229986318600727
0.666,-0.3461325045220323,-0.3277716874642307,-0.365673302176818,0.41550726912762426,0.1376089215177205,-0.10059464030930265
0.668,-0.3467720609473014,-0.3420557761676077,-0.34822909180068246,0.43080323005101334,0.12478927484284293,-0.10299310273717684
0.67,-0.34323254622067206,-0.34439443114384516,-0.343572489454256,0.43020987092748664,0.11625837106735967,-0.10978457238044309
0.672,-0.33309405502239925,-0.35618069873207947,-0.3314226503053842,0.43574158342278707,0.10422484044756589,-0.1258268423497393
0.674,-0.3314357143478179,-0.3541563959870722,-0.3206677302316194,0.4304714476156525,0.10911606539875396,-0.15021357061749982
0.676,-0.334473453445793,-0.3543891345278655,-0.30683959292959584,0.40571442834645943,0.11532547500188277,-0.157703949887801
0.678,-0.3416652000946445,-0.3556099858580702,-0.29784573751576665,0.38967733805460003,0.12285651875423008,-0.159932292969165
0.68,-0.3537028767803857,-0.3480149765017321,-0.2903573922869164,0.38761759904033966,0.14521027117547783,-0.15721258556860107
0.682,-0.35769212151547386,-0.3370795695784086,-0.2753321150325715,0.37544628848593986,0.15860347518675907,-0.16626266913206839
0.684,-0.34859634141644,-0.3297827125458976,-0.2670867161431554,0.3757102716751027,0.1303950690617449,-0.1264417263421957
0.686,-0.3584632334704349,-0.30870537867326797,-0.26504008841810184,0.36210706282133787,0.09130971611149524,-0.0992077668856815
0.688,-0.35900526215856504,-0.2982323180194968,-0.280976865208828,0.3611667972838116,0.021690864701398263,-0.08831879207794938
0.69,-0.368817127889121,-0.2694671605089729,-0.24356915879132823,0.3628252839196557,-0.0035076075251240816,-0.0757636911276707
0.692,-0.3722558124910532,-0.2498318552439854,-0.2312287753253703,0.43008369449363615,0.08171741574734831,-0.06179995221009077
0.694,-0.37328120228699346,-0.23003739238717544,-0.22386673478931074,0.4515108372753042,0.0954634354232366,-0.03222912660318574
0.696,-0.37328235214572436,-0.2037405864922467,-0.22243555907505466,0.46723707010820204,0.10414373661333892,-0.02852132289970769
0.698,-0.37889683178084105,-0.17614490562211194,-0.2200322631417354,0.48363240952694037,0.11704215272636248,-0.027768677406598673
0.7,-0.39050735309254536,-0.12716658978739753,-0.2304082239784569,0.47230904988819855,0.1300429267830809,-0.0517831041323276
0.702,-0.39834329840099814,-0.09643414691666538,-0.22449385528287155,0.49705658470059494,0.14926756405947036,-0.08267010366787403
0.704,-0.40243688574846076,-0.05615178104497802,-0.22729432147598044,0.48932347929976594,0.1338935249345531,-0.10954713173361745
0.706,-0.408928140440814,-0.01123818869221941,-0.23555695154950607,0.4754619128593001,0.1373718817799796,-0.15230096329064763
0.708,-0.40042821052572347,0.003550686018745244,-0.2152967391331123,0.4958262893526593,0.1288823908962442,-0.1528516326111
0.71,-0.40964544913589573,0.01982083709502762,-0.20190363304271786,0.5304520340021612,0.13822648791515105,-0.14030626678379463
0.712,-0.39891410362306473,0.029786672534038567,-0.18355173137706793,0.5465554742810619,0.12476067069396388,-0.1174828119852437
0.714,-0.381024772546699,0.0336453628699547,-0.17762001858420923,0.5843396874219431,0.15418581492139358,-0.09457897826881713
0.716,-0.38804167528389805,0.054822844506012026,-0.18044911890671264,0.563474349352902,0.1934855737396314,-0.10530095244461622
0.718,-0.40563166551909924,0.08164303964394774,-0.18943842254294227,0.5593629335923506,0.22573621372829442,-0.11876868279724119
0.72,-0.44696307013984693,0.10893433970933024,-0.22076842129693555,0.5366544524244093,0.21232920965695015,-0.12802398044327357
0.722,-0.4951120210445914,0.1483412894749767,-0.25834581912257426,0.5077843586869639,0.21814796079160334,-0.13720320880391337
0.724,-0.49690906114353756,0.16538268999847297,-0.2508286082294056,0.5251412664265181,0.18883710011843105,-0.11485447412000299
0.726,-0.48825688413850316,0.1763963729020786,-0.24357218558366936,0.5423711249562819,0.18929073005572153,-0.09991462191665663
0.728,-0.4706211885875301,0.18270444180118264,-0.2363395933393578,0.5561092247830622,0.17983456062351874,-0.08831507453777686
0.73,-0.4487609291886852,0.18659609139587,-0.2397619982012445,0.5655277512888176,0.18530241304999473,-0.08588338096596654
0.732,-0.4372365909255619,0.1971657615362031,-0.27818010675386384,0.5370555891560141,0.16209713322035593,-0.0867462668228073
0.734,-0.4381761104213119,0.2177147313185994,-0.308786030868038,0.5179878373259045,0.1418824849259902,-0.08007178123530094
0.736,-0.45807488869212787,0.22734752713896197,-0.3308438006966475,0.5144777659698277,0.12508589589909994,-0.08583047049186696
0.738,-0.46093288016175404,0.23846394250742647,-0.35160495794699065,0.5033160806016316,0.1347456470366533,-0.0936708795843467
0.74,-0.4606734258035226,0.25915341317582397,-0.35073550256499936,0.49539531614807925,0.1460434717624526,-0.1100428345049545
0.742,-0.45558465547363225,0.2775980437341399,-0.36725852316824803,0.4891501418324261,0.16193286091350337,-0.12420622935447843
0.744,-0.45258208673236033,0.2901906273561303,-0.37717138426953967,0.48785879120097203,0.17713782163330632,-0.13765788519048747
0.746,-0.45434089925397786,0.30251909927796883,-0.3918758129268213,0.499455606830337,0.18507226599329127,-0.15880568284360905
0.748,-0.4526561794694232,0.31133587533587437,-0.4125650476574001,0.4895182681627143,0.2043843753964097,-0.14767124738293835
0.75,-0.4526766635546098,0.32159731840989425,-0.41064118453283077,0.49064493376860546,0.215004383457329,-0.1454602795081718
0.752,-0.44189921817104816,0.3272558878070434,-0.4106571456182387,0.4860525364269631,0.2169599984270188,-0.14411869320071632
0.754,-0.42026374420831475,0.3286253331247139,-0.4170373270639061,0.4847357076729484,0.23234348406753194,-0.14246379642037627
0.756,-0.42422010290368806,0.28378567401321186,-0.4081642194532734,0.549143037576452,0.17918006614597984,-0.060691029282957464
0.758,-0.4402744944666506,0.30042657422147595,-0.42163152839187196,0.5698600730306917,0.21285636572574435,-0.07643039913294991
0.76,-0.4526168439464703,0.3258740183205168,-0.4326910985172475,0.5688969322887457,0.18074719786450807,-0.08119958285403253
0.762,-0.4645787485458133,0.3398183730964746,-0.44375239021368834,0.5507248594698295,0.16496979298666173,-0.08658726090654169
0.764,-0.4522296670016985,0.364257120712758,-0.4488821043386967,0.553228283717169,0.17732322634616526,-0.09450995316735664
0.766,-0.4516460425731636,0.3706054155700353,-0.4515546755838557,0.5573651068418284,0.18577318794203396,-0.10374292798006832
0.768,-0.4512656414962591,0.37674357961750904,-0.4535599762974546,0.5613768169525085,0.19743268058765773,-0.11498465282936571
0.77,-0.4506540480878813,0.38302729417456005,-0.4563218668725877,0.5654406591333476,0.20547058183117828,-0.12391837128513052
0.772,-0.4479586094765494,0.4019300060823348,-0.4646427846598845,0.575354634156455,0.2524038592742002,-0.14333834462924283
0.774,-0.4424703096797161,0.3998134827857453,-0.46735077943803555,0.5912699872117994,0.25656669185063596,-0.1437470189402355
0.776,-0.4404628857135224,0.4029839798995526,-0.4756181453664242,0.6103134030090509,0.24574621752169046,-0.13211384813347474
0.778,-0.4413703255326169,0.4021873764772784,-0.47427094958873506,0.629721209506464,0.25110536219488466,-0.1241039140768311
0.78,-0.4460282757322023,0.42492753865525484,-0.47428410046070907,0.6458126816759331,0.2266943075688171,-0.10893433254301393
0.782,-0.4541760538165834,0.4475000427195551,-0.4632740172604454,0.6543259176632295,0.19226888101902276,-0.11039820186467657
0.784,-0.4603362638745074,0.4614991494790226,-0.46038685912236205,0.6810092583826578,0.20531141145221168,-0.10477882376092924
0.786,-0.46478602117152834,0.478367305790783,-0.45808035243610173,0.702886070610132,0.2074557053028759,-0.08258587543228706
0.788,-0.4666561976130191,0.4939223644902679,-0.450465856051677,0.6993239643986988,0.21689924515476747,-0.09816738298156484
0.79,-0.4644684990972605,0.5075500322654009,-0.4422435512369882,0.7038662547066077,0.2061188927836776,-0.09526932920871198
0.792,-0.4511271591970084,0.5097982658006666,-0.43317921215632654,0.7104102425667308,0.20817432302214556,-0.0830303209309364
0.794,-0.4581798369348886,0.5174660259848629,-0.4263766614195849,0.6985613066158892,0.19191173862584504,-0.09496246344135606
0.796,-0.4579255345571219,0.5223702889695901,-0.4452446299038038,0.6831166040379709,0.16132109294593747,-0.09215165207798824
0.798,-0.45596334044477416,0.5231156246283996,-0.4512100874624314,0.6846922372400349,0.14892816658648675,-0.07632309880086885
0.8,-0.449470998891595,0.5257887992585458,-0.45413776210665757,0.6718976735315941,0.12866566750840874,-0.07569098138856983
0.802,-0.44317875971124976,0.5226885355858467,-0.45651563348498964,0.6465287392220506,0.13405550055176368,-0.09088664541449865
0.804,-0.4460291122061303,0.5277416276175084,-0.43028774255638863,0.7021437671939632,0.20137805447768117,-0.08937027979970338
0.806,-0.45290690908707365,0.5199594892895534,-0.4082010603901135,0.7323975104957885,0.19928872047786172,-0.07341806607334214
0.808,-0.4546885876741771,0.5119239695045672,-0.3870212431757913,0.7616929233294263,0.19572914184832055,-0.06958003747574505
0.81,-0.45939073810747816,0.5177863113800729,-0.3721093944022075,0.7842851357839682,0.21090740172683767,-0.07259385801376213
0.812,-0.4475685457196427,0.5130688316564537,-0.37622504745029534,0.7652326779508881,0.19917795540212407,-0.071338614418739
0.814,-0.45657088897230924,0.509310579183658,-0.3829462447347859,0.771081032882302,0.17518633027162975,-0.07368061666896628
0.816,-0.4548652075260777,0.5073143213130581,-0.38845787876896276,0.754438053346067,0.14836524241244434,-0.07614609332846496
0.818,-0.4690455557900568,0.5241477026539196,-0.40929534815890484,0.7322149564146831,0.11922106079009932,-0.08147325196316064
0.82,-0.4716086318563929,0.5144553445448827,-0.4197640046012391,0.7168891508888914,0.12463654572302937,-0.1077489888255821
0.822,-0.4722130211400087,0.5095879662006925,-0.4186680324066488,0.7229674194602599,0.16817046917707118,-0.12250652132694172
0.824,-0.47401832890343387,0.5001502427886009,-0.4269937752531376,0.709706324825081,0.1444349986176473,-0.11335997093514394
0.826,-0.4600041504926846,0.4825164165149037,-0.42528594025348704,0.707851015146363,0.14707259579035073,-0.09966210285995213
0.828,-0.4524589563684559,0.4569761975173769,-0.41804680277866924,0.7257570281117299,0.1733194320550279,-0.0968331220499998
0.83,-0.4558457485790132,0.43903653236294743,-0.40944312936127647,0.727795285743493,0.19858497407461095,-0.1262652176427902
0.832,-0.4747539869221551,0.4565526875952445,-0.4164121302319527,0.7096016622475726,0.20446331329844297,-0.1573027413458038
0.834,-0.4758391950579635,0.4513082362911618,-0.41358576373393374,0.7095950196642751,0.20413579652320332,-0.16013666991123018
0.836,-0.47417786385594485,0.4450409841197362,-0.43224894156415605,0.6992483841387537,0.2048480695700669,-0.14571068625680408
0.838,-0.462917925951194,0.43852385460365556,-0.43687136092903744,0.6791122981585264,0.1766007984707873,-0.13317704347307074
0.84,-0.4692572824057731,0.44365245041516727,-0.44639234210464124,0.6681612341868649,0.16646506969495034,-0.13789076875290932
0.842,-0.46889443301053985,0.4320543659564972,-0.44680810300513757,0.6360063079886578,0.17064482656072688,-0.16177545654679085
0.844,-0.479611536063911,0.4051310529999576,-0.4480086549367645,0.6430542148335422,0.16394016119920182,-0.1502975926574985
0.846,-0.4786964763981974,0.3956633971738027,-0.4525447398467632,0.6387994040915178,0.14398611965132924,-0.14471320286865616
0.848,-0.477367248180523,0.39193459447465573,-0.45740949134274994,0.6196590018335626,0.11419252343999743,-0.14362515713121607
0.85,-0.4763077295004908,0.3809770737100642,-0.46056634480684894,0.5942795758917128,0.10487781956331127,-0.14506162207835932
0.852,-0.4805074321602058,0.3787050124679845,-0.44497523274808365,0.6086231328060321,0.10938539574371609,-0.12191931863305151
0.854,-0.4811245570976444,0.36497131503182884,-0.44214498499994587,0.6132033135941818,0.13077827740129364,-0.11184165302715782
0.856,-0.4939996813740854,0.35310140078765645,-0.4324787574209876,0.6149378226173471,0.17114148267160587,-0.11702306513925248
0.858,-0.4944807052477673,0.3378552342711442,-0.4310325448214592,0.6141925387091777,0.19054916997631632,-0.11834034384682218
0.86,-0.49043599722211645,0.32371444869491534,-0.4084444759356879,0.6242038662448218,0.21436167919578764,-0.10592907832364375
0.862,-0.4808763487768105,0.3076316984610138,-0.39222648858223863,0.6351505545640924,0.2291096390895626,-0.09228137442051296
0.864,-0.47326580474910185,0.29819371881312307,-0.38272743740766163,0.6277868357434331,0.22737884769773298,-0.08664480908215606
0.866,-0.47367495700107837,0.28798875102644533,-0.3801479291628037,0.6117494184290146,0.21294714007695426,-0.07718694652552464
0.868,-0.4889156290676709,0.28812181642876555,-0.37788690010249165,0.5795298523973524,0.21969910854345734,-0.11751255718777466
0.87,-0.485914923647763,0.2733074502764257,-0.3753944288183072,0.5626434221696187,0.21158855034721838,-0.13123092343202317
0.872,-0.4879119162067675,0.2620506539362579,-0.3836984363346532,0.5455063476989126,0.20766584739031457,-0.13730905097230497
0.874,-0.4921904655886799,0.25240847607862116,-0.38702070321822163,0.5269900377432832,0.20803311957920761,-0.14508941218204838
0.876,-0.5042149863161277,0.2440615866468588,-0.3987794182058773,0.5197394046934576,0.2066833480821406,-0.13314673265194624
0.878,-0.5117869512976964,0.23933951017449448,-0.40815121321291964,0.4979797311577188,0.17426545460422627,-0.13420339916431753
0.88,-0.5143719471074645,0.2526300889653079,-0.4332591310692888,0.46569017245146155,0.16722061059171417,-0.15263639234042764
0.882,-0.5173903140861923,0.256564962937288,-0.43731871056926136,0.4540923714119146,0.15275386033866153,-0.1681084538509499
0.884,-0.5141935317054772,0.2396570215904588,-0.40232620019068416,0.505261002995514,0.1917019005069417,-0.16991766135909936
0.886,-0.5167372495228307,0.22980739475403483,-0.3963582022366698,0.5260877589433275,0.21407116770942283,-0.16789221418836872
0.888,-0.521107206068398,0.22248782003275588,-0.3832962174572371,0.5295114829557419,0.21462938381582397,-0.1793412333051979
0.89,-0.5243286170801137,0.21251041469021206,-0.3750552138858481,0.5435911815807943,0.22819347314196067,-0.19175561710237254
0.892,-0.5202397830763014,0.21107622245374216,-0.3889297355386919,0.5348330930892704,0.21845154518148044,-0.18332018721127613
0.894,-0.5165349370396645,0.20436514960092692,-0.40209396194161107,0.5325330232413584,0.2156242586821261,-0.1740077136855022
0.896,-0.5136653557164512,0.19175388727766432,-0.4132777978627058,0.528400459033718,0.19886829770093079,-0.17066294540562785
0.898,-0.5095888378302141,0.1873661234614746,-0.4293212241051614,0.5258351601391992,0.204760191602749,-0.18239453328654295
0.9,-0.5269801160915119,0.19249405106290474,-0.40549545270576537,0.5436617539229721,0.2293285973588109,-0.1982176470862325
0.902,-0.5399809442072099,0.19474836621785227,-0.3938608919310921,0.5608249578653901,0.24061431946238554,-0.20110302636968352
0.904,-0.5462227923990497,0.1974977430994381,-0.3717872420555258,0.5827668194439061,0.2255020323036447,-0.17816009394194798
0.906,-0.5515040640129536,0.19332968263780545,-0.3561693148443728,0.6144733488992309,0.2526815271244741,-0.17604922055515387
0.908,-0.5806357374451327,0.2212995485309918,-0.34218102292294433,0.5593377041328332,0.2204337872532801,-0.23798131289482816
0.91,-0.5644319393076682,0.19898861816332752,-0.3301682919925602,0.6152284953228967,0.2612169924315078,-0.21719103137756343
0.912,-0.541995559906318,0.1553807038287306,-0.3436867766884657,0.6455502439233374,0.3191481697015535,-0.2006181614996124
0.914,-0.5447568453796583,0.13004694359910057,-0.36874277071231104,0.6086586137166382,0.34062857142794095,-0.25784250293258987
0.916,-0.4884803870091126,0.0098191684939462,-0.3155943487918793,0.7657315641248349,0.4167287366468404,-0.17903295830112492
0.918,-0.38297525677503275,-0.16220082556500387,-0.26053280640970816,0.9855629917224239,0.435177245496311,0.004165272560458463
0.92,-0.3090344927928596,-0.26213629011028755,-0.3436073191287916,0.9539407593739376,0.3633786692032417,0.08191461226580575
0.922,-0.23421122262973446,-0.3152190965095196,-0.47750832547172983,0.7903819094245861,0.33526020113567007,0.014499175815200082
0.924,-0.1388581058061621,-0.451290329584561,-0.4596585390213971,0.8560425438841395,0.44084280857175573,-0.060279298959763666
0.926,-0.03889852460761016,-0.6605009519355158,-0.30717001410994643,1.0834767086826054,0.4497387981478636,-0.017447237241770074
0.928,0.030527619692140517,-0.8297442684098186,-0.2017404374266913,1.235606528009535,0.37049814446270846,0.07009070561649364
0.93,0.0768583011344111,-0.9262514123041489,-0.11427104054804123,1.3398523744538604,0.34156232181878254,0.08829335711332899
0.932,0.11568340028629037,-0.9983600006573895,0.006010876833940704,1.4632761927041444,0.3363787442476417,0.117603986400623
0.934,0.12894975079013454,-1.021429374804786,0.0814108791431154,1.4775280052393507,0.24355997869269716,0.1456292521839427
0.936,0.09744878329102769,-0.9249756596502589,0.09576296281093402,1.3831492025466579,0.15318120740944557,0.13384595133885904
0.938,0.05472846590346053,-0.7425570894852548,0.10682903279837859,1.2700998225365243,0.12865828684868347,0.10712668705092683
0.94,0.012522181308716584,-0.5629772077978087,0.15168611952305178,1.2007623670858485,0.18495617030312225,0.0885793110789892
0.942,-0.04255850790908678,-0.4633018629243746,0.1908345645336359,1.2013404425292842,0.2834605362290307,0.06151818430096488
0.944,-0.1382578973633201,-0.37012727574178567,0.21464825691011488,1.168778646445945,0.28513670575156624,0.015077973642592477
0.946,-0.3055357097781234,-0.253828730819884,0.2865683016009113,1.1143864685060876,0.21976605825762224,-0.0941280263517486
0.948,-0.49274586631581574,-0.11966052012777481,0.3590141764928552,1.0887155939719653,0.19892071137867748,-0.19045161830035245
0.95,-0.635294282157987,0.03564257053980823,0.34417920049455963,0.9720993247811689,0.21427691179105743,-0.24056827613931622
0.952,-0.7795211269780165,0.20440982875079103,0.34629332823702785,0.8570207236678257,0.18066375048168418,-0.32868558802340814
0.954,-0.9069759554698353,0.28037383146611344,0.4673605400836536,0.8948116269698635,0.1527512522532699,-0.42841420076094583
0.956,-1.0068294934921806,0.33791901992966666,0.5860377819648399,0.9160018587612829,0.07322364586697934,-0.4659656217004001
0.958,-1.0984191618383095,0.3971341343174836,0.7133993446544692,0.9266127031669603,-0.049014929699355676,-0.42935682839164047
0.96,-1.1934201232100308,0.4532460783636753,0.8858823109084059,0.9753167129623661,-0.13749768061714956,-0.40726544024504335
0.962,-1.2405194276022151,0.577567587984845,0.9647608042186184,0.9474830553870456,-0.09499385113902888,-0.4003772470239948
0.964,-1.2484797987951854,0.8133162040368023,0.9150544181650819,0.8243274222062111,0.018963579319250117,-0.3624830566497861
0.966,-1.2555893906903335,1.0504679297770043,0.8122724330032561,0.6855082535091663,0.07869451590659282,-0.2932748508387915
0.968,-1.2509815222777227,1.1753914403728298,0.7216820841627827,0.6122130524864507,0.07990331899117133,-0.2316305489584073
0.97,-1.2459496864797743,1.2230704207756613,0.7050476935387712,0.6083256819469202,0.17109004044853407,-0.1832116541728567
0.972,-1.2174661875218884,1.265777306904328,0.7116190550472145,0.6280281185886988,0.2124509717910819,-0.07958106156703722
0.974,-1.1397750196654752,1.3036296796972489,0.6353368515895421,0.652762229820081,0.17521859910482507,0.07914201169300066
0.976,-1.0522867488203556,1.2999557165287936,0.5206518429065992,0.6135361018239396,0.1780539502572167,0.16882205208709844
0.978,-1.023191168655207,1.3266191533496217,0.4800587606537923,0.5656616255626071,0.2111740949512865,0.1456861845658866
0.98,-1.0040246445503203,1.3724264944069027,0.5134204995848881,0.5715039949273178,0.21239887894096296,0.14081916690664545
0.982,-0.9556390776763669,1.3637732858373648,0.48871306192918795,0.6119575492452425,0.26873155020766676,0.18772292934118778
0.984,-0.9105504259495609,1.313357813376319,0.39141888098982913,0.6189946606089206,0.30729043822997254,0.17905624323395544
0.986,-0.8844500127850617,1.264153084224858,0.27229738559986005,0.5623823577182835,0.28337094520376965,0.07899418698744742
0.988,-0.8515550595330388,1.1870365548699504,0.09905068113895864,0.5618018819613294,0.3395164623578216,-0.023617890660576298
0.99,-0.7876724465441237,1.0904643047428582,-0.09652445698390158,0.6066783285796298,0.4385230996847399,-0.06249862706126804
0.992,-0.7331250147422523,0.9883232212826214,-0.27511300736438615,0.6323547893154642,0.4185397576745951,-0.08074346632452342
0.994,-0.6894409620855444,0.8890242350246275,-0.4101967735421092,0.6237842279270962,0.3539158604017617,-0.08167345863257695
0.996,-0.630463579215635,0.7927475699500285,-0.52466274192601,0.6073485850258371,0.3245732797128528,-0.08431709047574207
0.998,-0.588677097782892,0.7197721978373398,-0.5777285440180046,0.5992351706740418,0.3567094554236887,-0.1401090921656403
1.0,-0.5693961688262512,0.6485732480982158,-0.5661617479713439,0.5978368242947629,0.3899081931367976,-0.22010559806167157
1.002,-0.54380035073801,0.5658582210877207,-0.5429386613088457,0.6440548914628786,0.4285405889574308,-0.2232212422335604
1.004,-0.5195154633447306,0.4718092555324043,-0.5609908102810298,0.6581711857498953,0.42698476550664755,-0.1673511119269562
1.006,-0.501911693319842,0.42637001282254644,-0.5856800949396284,0.6317055807847238,0.40385788220627966,-0.10455928481258993
1.008,-0.5331386210705451,0.41712161979475343,-0.6135831642930325,0.5720236956546892,0.4305362884184723,-0.11636660538285756
1.01,-0.5735269640477995,0.3927526052752454,-0.5936429203834437,0.5193690987728903,0.48054016396004673,-0.15135003463152716
1.012,-0.5797142876102468,0.3421752842750485,-0.5418699704321018,0.5031213852016196,0.46127243798336515,-0.18096252289769424
1.014,-0.5893218440103376,0.3164937058570773,-0.4915369209642131,0.4398833510355263,0.37405672789835626,-0.2300744143413515
1.016,-0.5814159042875892,0.2725370391324219,-0.43426940046306267,0.41703045816893414,0.3190009390587671,-0.23147724798730326
1.018,-0.5565270847266729,0.1783033744778353,-0.3494470525292863,0.47392810776839966,0.3392289908483517,-0.16526025802277816
1.02,-0.5285431435619357,0.0936759129837459,-0.29232570836609806,0.4887612391214323,0.3094564262663876,-0.12582563890627968
1.022,-0.5368021531207314,0.047042752452315546,-0.26560781805323086,0.4834048341288732,0.3056952191187977,-0.11400117305200155
1.024,-0.5423591181386808,0.03149297086476535,-0.2638699654344317,0.4808333662198477,0.3125979898864765,-0.10069035695116385
1.026,-0.5371219238286203,0.020236870144326756,-0.24736728032803573,0.4836258355851869,0.2988032450353267,-0.11037051231008108
1.028,-0.5312240973285272,0.0178506501273668,-0.23250431728079832,0.49528459944896663,0.3001357610426722,-0.10722304052493822
1.03,-0.5308284636244833,0.020762874897010588,-0.2200222213477431,0.5109004612950415,0.29855899918453327,-0.10807929264595262
1.032,-0.5249657882680656,0.017690349298189967,-0.20445570294681167,0.5165114824395561,0.3059308161034948,-0.11225008814835333
1.034,-0.510331540618043,0.01959871521263466,-0.2001922766662382,0.5054288644388221,0.3098607404801269,-0.11546961480371126
1.036,-0.5017231794903269,0.031924742171905905,-0.19329796424453194,0.5241657697881622,0.30126643519037233,-0.10385797028951267
1.038,-0.49666362525775043,0.0364081078062432,-0.19783511311461222,0.5181455766153586,0.2804219718573495,-0.11946861010409303
1.04,-0.5006296268222068,0.030442637206993892,-0.19942163349162204,0.4997864118980025,0.2581197527786253,-0.13592940157551386
1.042,-0.4883721579215646,0.027889015312965556,-0.19264094970610462,0.5072993133181348,0.25915026834695204,-0.14553574833274005
1.044,-0.4849894750091402,0.014865242295033027,-0.18741319841170012,0.5245712396021724,0.26135637278963536,-0.13512688992040717
1.046,-0.4914191399760041,0.012843859461848678,-0.18463421866996052,0.5303588268866456,0.2649323296366823,-0.13762281080003924
1.048,-0.48539783762245914,0.01760879041565753,-0.18798073982803845,0.5330141674194345,0.26405571211199785,-0.14032070895704005
1.05,-0.4951338002185664,0.008296424479098003,-0.17532088544032468,0.5582617939660895,0.2495382966180633,-0.13089205070717638
1.052,-0.5018163504283057,0.0058845583259617045,-0.1692496874989327,0.5712923614045241,0.23599641570220764,-0.1024549706436618
1.054,-0.5054301102791107,-0.005285851476378319,-0.17398417126309518,0.5794268293330126,0.18436488566169493,-0.049790609551506076
1.056,-0.5100826000532832,-0.01766147631661945,-0.1751270649987711,0.5965934068492446,0.1651273641799742,-0.025081770704302765
1.058,-0.503883380392279,-0.01237880959916237,-0.1640911497421119,0.6029037607971369,0.17527760770074963,-0.04857278361183183
1.06,-0.4914003825656755,-0.006075917803216856,-0.1523455253149477,0.5983493534125837,0.18562930483575907,-0.06665410215164294
1.062,-0.47860214284273905,-0.008303901558239174,-0.14139277890119492,0.5857412629263942,0.19976940845011096,-0.07387388195855508
1.064,-0.46874565841944527,-0.018112186549001298,-0.1270526587251973,0.6020953672999411,0.22393760701708826,-0.08555437496840416
1.066,-0.4734185331973764,-0.03877518722331904,-0.09672594676074883,0.6336626656003991,0.1783770279572432,-0.06531377470359638
1.068,-0.4618355813209591,-0.03167428633784581,-0.0830909555719188,0.6508207774265179,0.17722484390992926,-0.05692037888538186
1.07,-0.4613268778733481,-0.033387049610426975,-0.08437796794109886,0.6454318709962222,0.1746749342798682,-0.05242144629118684
1.072,-0.4743486207681198,-0.04673034008936456,-0.09409594193111422,0.6346247304392891,0.15173839613284293,-0.0462619444918305
1.074,-0.46677108567233117,-0.03921318308426993,-0.10414203335739122,0.6430126568689973,0.16232110941870162,-0.0643370292289609
1.076,-0.46974191468226556,-0.03580545949058695,-0.09388617370605487,0.6410689982917808,0.17109788068319412,-0.08418403821819606
1.078,-0.4648023779277999,-0.025462945047769407,-0.07223035501932391,0.6540560111918043,0.17584359123079818,-0.07168454985445916
1.08,-0.43549960536953486,-0.029887234813275047,-0.05108791613460132,0.672815147077917,0.16894295752811642,-0.06137085668186324
1.082,-0.4504161286050526,-0.06823602321332026,-0.07813587445524785,0.6942814272849394,0.1897110929812791,-0.05889021513130841
1.084,-0.44730335033851937,-0.08732372028707645,-0.09326176290065705,0.6883385816616211,0.20055850388309468,-0.07834380660855533
1.086,-0.43848085310388885,-0.10235744220779205,-0.10237331292277035,0.6677269143322463,0.14839744237614874,-0.05004365879309976
1.088,-0.43577340664282027,-0.10339699990796859,-0.09538108465997523,0.6739341709962521,0.1562866083963842,-0.058500081281633004
1.09,-0.44495075794482597,-0.09809180945203225,-0.09837026611679654,0.6616513092909928,0.1542410566561061,-0.06544426805451949
1.092,-0.4446068890121167,-0.10893267504359291,-0.07908913058225742,0.6516469980113586,0.15750690948917317,-0.05651249591344277
1.094,-0.44491234132763813,-0.11620628488283065,-0.06270063306351577,0.6583414192295924,0.16447958008455985,-0.0683547305561627
1.096,-0.44421735897525455,-0.11492497294670995,-0.06448508239681588,0.6655957318907653,0.17948236413772842,-0.07064713239595545
1.098,-0.4281517228567986,-0.12765057048697948,-0.051536933806139995,0.6891768653237536,0.153180806456331,-0.061990049627598215
1.1,-0.41307679450206836,-0.1380778510218202,-0.0377916261560787,0.7126636746120653,0.12082770222125723,-0.04876574812931411
1.102,-0.40028795298688846,-0.15292446833846182,-0.029319086876692022,0.7152707781770153,0.092403713736133,-0.03919822966652999
1.104,-0.39253471757973557,-0.15987603570935774,-0.021612945467639193,0.7209800661357203,0.056246805798716645,-0.0349637143019967
1.106,-0.40892320567774115,-0.18029160054492288,-0.020979836294465495,0.7104602924793998,0.0736977639251401,-0.053944320810506326
1.108,-0.4199477627635674,-0.18905019249826638,-0.019414227312461913,0.7039184440264298,0.08377974274210116,-0.05954672239150895
1.11,-0.43301757430072796,-0.19924530089666895,-0.022728450957502994,0.649180896686777,0.07665150157816814,-0.08439602447178388
1.112,-0.4388735201099857,-0.196868643572198,-0.03684657789125365,0.630319069220103,0.07888823437219028,-0.09216780726467415
1.114,-0.41696883722363215,-0.23917672642588897,-0.04720326502425117,0.638240110503233,0.055110762410004996,-0.057050641506595175
1.116,-0.40317754752293605,-0.2521056022986672,-0.04094756346409052,0.6478876170867336,0.06454945707291661,-0.04152217892813745
1.118,-0.40184615473318186,-0.29028421821428074,-0.03135780095405852,0.6511361121152099,0.06906087612515177,-0.0395228775697018
1.12,-0.39190327141593273,-0.3257595968090539,-0.03189712849368254,0.6497931654122909,0.07339382902677768,-0.031183988120417477
1.122,-0.40284698269725333,-0.3488633600575432,-0.03353818517760733,0.6381384201343191,0.06702268479696433,-0.055951303145716884
1.124,-0.40209241471129603,-0.37840164837754464,-0.05053959204109005,0.5783478114924112,0.05406046236763535,-0.05992496553629218
1.126,-0.4047572868360217,-0.36369896476965413,-0.05965812394767512,0.5444357164033627,0.026519290088517417,-0.08703515808839261
1.128,-0.41380717891981833,-0.3745421806572076,-0.046602475402642465,0.5263252343077567,0.0134096142494397,-0.08998311654765827
1.13,-0.4072254213454441,-0.4241368327948112,-0.0349727964797758,0.5514743422275017,0.05768251261322054,-0.061184618626454176
1.132,-0.40868277290409877,-0.44020021607851995,-0.0321218583493386,0.5695582998759834,0.07938056941711098,-0.05097758871322065
1.134,-0.39851131475366136,-0.43800723075689996,-0.030173343801749877,0.5427371910036359,0.04619189153167034,-0.055329853828249634
1.136,-0.39537627794059305,-0.44586936007661016,-0.02460272092610567,0.5466615402123157,0.050502061202966096,-0.05751621733473431
1.138,-0.40075994150370703,-0.4664770091116203,-0.0435388869399628,0.5303520701174592,0.02501309964530924,-0.04654931352693577
1.14,-0.399981300140152,-0.4738488394738828,-0.04622926778245001,0.5151185488053766,0.020316069004185592,-0.049701947188290706
1.142,-0.3913363133250123,-0.489767424038861,-0.04229216661864369,0.5055773350182011,0.009172438004512746,-0.06226266975653435
1.144,-0.39223625086931474,-0.4936587606928593,-0.03978154874999137,0.4870720718196724,0.019635260199153105,-0.08263690003307976
1.146,-0.38783802239917425,-0.5004337352602435,-0.023500738719738706,0.4743614275546519,0.027420713428499388,-0.09761305178963316
1.148,-0.38343628627919707,-0.509144237173016,-0.020542354620366424,0.4600541571146503,0.023520150802779027,-0.10178798900605047
1.15,-0.3837865570851909,-0.5094807361328831,-0.01940520143218825,0.46141706568508944,0.03752399643047312,-0.09928900047241136
1.152,-0.3762392154150401,-0.5046942456380031,-0.010133007587856888,0.45023549101603094,0.040539190773823716,-0.11181373196965125
1.154,-0.38164370579396756,-0.4948685745224565,-0.0036981188612820537,0.4241503741256202,0.057262184311748926,-0.1150850117698198
1.156,-0.40332976526678893,-0.4782233058503638,-0.011511023784413387,0.3953549516972959,0.06980072536078395,-0.12246512327868667
1.158,-0.4177760925329211,-0.470769121330414,-0.037101725740006336,0.3792153921862213,0.05137292826676772,-0.1458718812937548
1.16,-0.43948185949496826,-0.44675505054424236,-0.009358456647319073,0.36535014064352545,0.07655555990621099,-0.16862894511276344
1.162,-0.440347643127109,-0.4493873050233755,0.026031079439787944,0.4022124171159045,0.1189198842228824,-0.15384777935386038
1.164,-0.44419477694606896,-0.4443666263335799,0.042532830721205804,0.4023740725056183,0.10417558758859119,-0.12777355282726682
1.166,-0.44696974328662215,-0.43381844339366726,0.05295630701484549,0.39765116901521724,0.08755880472682995,-0.12629035233473113
1.168,-0.45511111927280784,-0.4210872158511765,0.0636630003561219,0.3918396452849368,0.06965994529849742,-0.1273412496804013
1.17,-0.46869394155522237,-0.4085113732838486,0.06404675045055389,0.3767438948361952,0.08481705923993851,-0.11550312645056267
1.172,-0.4802322305916101,-0.4039489670267475,0.08305258090393342,0.40512866109337664,0.1131979976639647,-0.12008658260404192
1.174,-0.4879697473684535,-0.39023220914904416,0.09286232573219565,0.40134522563523906,0.10615961783687107,-0.12127311189428946
1.176,-0.4992535302739856,-0.3721822660406703,0.09776353457154258,0.38877500951173855,0.1138914179402991,-0.13822913644543844
1.178,-0.502547660545458,-0.35357992817086537,0.11154676181270096,0.3841523255339529,0.11269766599288532,-0.1468769841764364
1.18,-0.527442991865592,-0.3319962312667594,0.13106166286015777,0.4053542933053994,0.12293977716651028,-0.14246207742005634
1.182,-0.5333970631143673,-0.31692669621968056,0.15511384848724866,0.4092726095906878,0.11267282135693253,-0.12920208822469254
1.184,-0.5310268262151652,-0.3076301901032144,0.16670447471708094,0.43374636099143155,0.14300345210441026,-0.11283154227149585
1.186,-0.523842271088684,-0.30908114323908015,0.19441922831290287,0.4489868175212589,0.14133677513767515,-0.09143240771104018
1.188,-0.5243708763610868,-0.29393021588545487,0.21582405701711396,0.4648725344793265,0.1602126781087366,-0.0876699577871107
1.19,-0.5487018144709292,-0.27700220307545187,0.21505158545625702,0.4634013067688567,0.13492077355240703,-0.07954823200043194
1.192,-0.5809427231871618,-0.24660259051933286,0.2084083740928827,0.4553679904486299,0.12716360113620603,-0.07086827522717419
1.194,-0.5919604831258909,-0.22042253556450747,0.21623008302928173,0.4568900744754379,0.10616425365613637,-0.04276239924821927
1.196,-0.603343562566334,-0.20591440924792162,0.22331970299493595,0.46012397788821846,0.09519563268697401,-0.022895916694133822
1.198,-0.6049852068996611,-0.19722042998132724,0.23153807526706716,0.4576839197211615,0.07304380758480357,-0.0059778004750018
1.2,-0.603344345308741,-0.19048248445135418,0.2287395840857519,0.4532075897197002,0.06926031499108513,0.0024900949273304893
1.202,-0.5941464015649076,-0.16987264449606612,0.21522122985870554,0.4464803034443797,0.06909958574790324,-0.01611150477678404
1.204,-0.5942732940999527,-0.14688339115286023,0.20046143726195723,0.43562037251081887,0.054888522190055335,-0.006389814900106857
1.206,-0.6122082577362263,-0.13448937524728985,0.1943097945816363,0.43978740371522307,0.04460392074255525,-0.007132914573601182
1.208,-0.6152578458132049,-0.12067126437778922,0.18932797419920674,0.43587255314318585,0.05980417259664631,-0.01382947229794697
1.21,-0.603106049877567,-0.12006119016538948,0.1787737592126024,0.42904533193630695,0.07085660987826607,-0.020134543664300106
1.212,-0.5948065698619505,-0.10721605845975482,0.15197488212874813,0.42235591938457995,0.08865362209307719,-0.014394475471113454
1.214,-0.5882233490100136,-0.09907480303011042,0.13056203119745052,0.41981853867675845,0.10548921528302993,-0.007629736123331314
1.216,-0.5855840193469352,-0.09334928165655311,0.10495060042327126,0.43096490591453546,0.11639168013229849,-0.008694929973047459
1.218,-0.591344289444686,-0.08244648185445194,0.11038107724957101,0.4168432206810368,0.16776359758953277,-0.03165909862439059
1.22,-0.5934016199213112,-0.06900615417155193,0.1197500995905386,0.4149569340030006,0.18653152299990292,-0.046907728006929716
1.222,-0.5856568428254563,-0.059245380165897976,0.1273646484012817,0.40690109182394063,0.19814336321828221,-0.062428385160051315
1.224,-0.564898053969869,-0.053852619330551174,0.12850761106466815,0.4020884961585719,0.2233435481250917,-0.07643829469037998
1.226,-0.5577323567433017,-0.059520430274057796,0.10337903798534756,0.3933954131193173,0.15783556139929333,-0.05011574768955439
1.228,-0.5554586348000212,-0.06958816349378537,0.0970958583295419,0.39500504311996293,0.13670859129223942,-0.013284131326556268
1.23,-0.5498581965169038,-0.07495512886578123,0.09619974896727994,0.42445634975679297,0.13639183758004966,0.03542741319699207
1.232,-0.5408326657218248,-0.08501989552711611,0.09933316475892097,0.45071409762252107,0.12915339536568707,0.07167519836433385
1.234,-0.5591578787110242,-0.07084405397139885,0.09439118231967816,0.42143078250561394,0.14953149345365038,0.04927373045055267
1.236,-0.573754880426412,-0.05863585450175031,0.07752558747575246,0.40298621093603454,0.1692713421903766,0.029547094009617345
1.238,-0.57267076875927,-0.05409587966946694,0.07417351861519218,0.40124390103779384,0.19317781572111845,0.019164786139571774
1.24,-0.5728713023726265,-0.0506427789446657,0.07370302336779833,0.41760232157855554,0.23267417791586448,0.00720437036249381
1.242,-0.5710858306323204,-0.07435841811579144,0.09879383925783017,0.4120680707539679,0.202240859545878,0.017679886381632245
1.244,-0.5805105621300651,-0.08978282844574231,0.11371140928174392,0.4180496831926078,0.21821295402058777,0.025467126515836352
1.246,-0.5795371089264792,-0.08936269657570162,0.11585295015553829,0.37392565528160604,0.15060321090168013,0.04008076694076212
1.248,-0.5617883935709548,-0.08214737209873249,0.13019277912632443,0.3576969404421472,0.1108808201849688,0.06874619013852895
1.25,-0.560602539824728,-0.060847605096661574,0.12930114630909456,0.3219640436389383,0.13654767910470014,0.035611164268433734
1.252,-0.5866260326001201,-0.04221571769788231,0.1011815976883254,0.26373819179602603,0.14451209520501065,0.001387791067067684
1.254,-0.5955833356129405,-0.04489220405944925,0.09733661539646263,0.22293481249508496,0.12493066561748768,-0.02079709339478582
1.256,-0.599073744114037,-0.06869638184833336,0.10839694360956219,0.21500730861205564,0.13678691589010575,-0.02765438311701193
1.258,-0.5972820931920113,-0.068830740248021,0.1038006158404608,0.20609759267613545,0.14057488179528727,-0.01190540845581273
1.26,-0.6086836597741514,-0.07891528307348149,0.09217391141189177,0.19024284009453013,0.153214390567459,0.005344086105389573
1.262,-0.6097115545998801,-0.0780878537772232,0.09538784150261385,0.2072914204967739,0.15936839463385646,0.018111998364415027
1.264,-0.6118850930201116,-0.08155925493085113,0.10008339657188321,0.2347824024884857,0.17900817036246672,0.02143770844133112
1.266,-0.6265855149824295,-0.0983650738431706,0.0969684145513259,0.22325927572942134,0.1630278241008668,-3.2621110406501756e-05
1.268,-0.6161107118229333,-0.10262561383280847,0.09463816881855104,0.21295744794004828,0.14144382726171342,-0.013404785015047898
1.27,-0.5962991984207621,-0.10885252222113942,0.09274249342518981,0.20973002333964452,0.13421993321665848,-0.022596734050058603
1.272,-0.5798783776487281,-0.10908388299491836,0.08978087300113292,0.208579904469358,0.15842784115494815,-0.03776705138450786
1.274,-0.5737164462831801,-0.11228548299017353,0.09816326165001607,0.2285333202001097,0.16853341951403802,-0.045144329497657044
1.276,-0.5858104961055891,-0.10915648075649252,0.10673371570266181,0.2488896963869141,0.18226837283583605,-0.03644665669693767
1.278,-0.6047725439773832,-0.10440212193876351,0.10020764397416214,0.27064638563348264,0.21439994548673313,-0.028262430666638513
1.28,-0.6019918029179585,-0.10241157976600983,0.0919799355355424,0.2720909090338372,0.23310119289788594,-0.026138934736147576
1.282,-0.5941506965447573,-0.09377988923139444,0.06646072186269109,0.2353176457359198,0.19570290382367247,-0.030309345745691954
1.284,-0.5894780762761881,-0.09845344940874548,0.04926695580109127,0.21094831282724683,0.17305226360681997,-0.04245414475634429
1.286,-0.594551651778798,-0.09864942436509735,0.030346251549840622,0.1988516035974443,0.1594905635147187,-0.04348272502825375
1.288,-0.5960547177593448,-0.09384542380347483,0.004715381035513176,0.1859870204738461,0.14672009496277397,-0.03607197937919912
1.29,-0.623905100015705,-0.08942157180828357,-0.0385471677829651,0.15255081358852576,0.1368542995864954,-0.03386046056457231
1.292,-0.6398811286532519,-0.07268537103703726,-0.0548202788271392,0.11135372285477446,0.09875429191649744,-0.060004102462354166
1.294,-0.6461284825777982,-0.0688645877920124,-0.004854237901899005,0.17194088409569508,0.1298330487343719,-0.11744360594514744
1.296,-0.6340484033434259,-0.0742897201926233,0.0033786266757657077,0.19836589421997414,0.12803766133416233,-0.08992050983967462
1.298,-0.6217303587572238,-0.08413222710765704,0.01420968260256118,0.21703346049451433,0.13327845140982075,-0.07248218278907784
1.3,-0.60979500483486,-0.09387252463121414,0.026412826393612823,0.23553811066296898,0.13894969080817288,-0.056467822750851306
1.302,-0.5986998850905102,-0.10391949472193797,0.037955732051121564,0.25414966819038554,0.14389366897983374,-0.03893996103555011
1.304,-0.6123367654997639,-0.08815898008087641,0.037985454835001924,0.2543629350779813,0.1935183923276995,-0.051575470854426694
1.306,-0.6130498089003744,-0.08883813792270442,0.040052588169824335,0.2524492960083247,0.1896717331392069,-0.059120147181831055
1.308,-0.617149795487252,-0.0838887656341631,0.036308409398567616,0.2533738057593822,0.17048849715961437,-0.05393134308848865
1.31,-0.6242044910950908,-0.08278804584569477,0.04230792430310093,0.2545386823832602,0.1675463440141173,-0.05287692268661175
1.312,-0.6021230391737291,-0.07526770600265634,0.04123118736562325,0.24158515814324136,0.17804696225414474,-0.054842586233036644
1.314,-0.5956364934422282,-0.06994595101752085,0.051648329566430784,0.22722923683014581,0.15614594233206394,-0.0718767492267726
1.316,-0.5860262529138496,-0.07267166871193911,0.05344078560563309,0.232023714439241,0.18203581001242922,-0.08269861343295558
1.318,-0.5758310741604066,-0.07264741117826162,0.054806811662921145,0.232009309138026,0.19610261037626966,-0.07740641372536329
1.32,-0.5916021997071479,-0.08501962647521401,0.05358186968165737,0.24249913918091998,0.20625489269000552,-0.06941822660084836
1.322,-0.6009018816311322,-0.08372717385539964,0.05000758639996769,0.26042278899352456,0.20138208487108783,-0.04767630750667214
1.324,-0.6000817504336741,-0.09484538469352478,0.047210062952662814,0.2797804537694089,0.2093475415602645,-0.016888407659111995
1.326,-0.6186736309932291,-0.09933968938964592,0.042385117037864906,0.28099060158717365,0.19870394620693782,-0.010700475463496416
1.328,-0.6261325103447843,-0.092949452035273,0.06856209040793415,0.28714091408575215,0.15804780099069893,-0.012536649882047095
1.33,-0.6359461445059835,-0.08766899395543482,0.08506038895350743,0.2967408532768284,0.13611480747635857,-0.0028869575602231616
1.332,-0.641465793727229,-0.08093530397128763,0.10555561195856544,0.29174995316442826,0.10819514917034459,-0.008047343075350823
1.334,-0.6472894816252391,-0.07886115222739792,0.12679784808476144,0.27502580714182223,0.10288264805051837,-0.02935673004313008
1.336,-0.6215692494797541,-0.08119725999770855,0.12357329653525653,0.3104590777104076,0.1471728084492244,-0.014610013508491304
1.338,-0.6032647448396411,-0.08882309136890075,0.1315817766520528,0.3190494974563373,0.1310668711321134,-0.0012510873842616669
1.34,-0.5808378921342647,-0.09568753921602381,0.1387501760549671,0.32481603618480215,0.1102510335942802,0.0014329204396987057
1.342,-0.5602614421762688,-0.08868556409023914,0.13924877804620756,0.3262327005928281,0.10980350617340678,-0.0024739243679549818
1.344,-0.5681398858468159,-0.07561275584290647,0.13380443040175216,0.3376393137967019,0.1164696493155064,0.026121485250308177
1.346,-0.5782540056428617,-0.07531745980294559,0.13094858323980593,0.3568573059540381,0.10070407563130183,0.031734669447385955
1.348,-0.5776266507085156,-0.07297264905556178,0.12887822400806007,0.35507314730883693,0.08248480585101974,0.03634877481261643
1.35,-0.5924704431143044,-0.051714912113790194,0.11377394033778673,0.34795115281497413,0.06195994853479441,0.03878010961387869
1.352,-0.5747712598461256,-0.046006141479861457,0.10237533464169667,0.3436426803133835,0.0640393029837196,0.032271680662358034
1.354,-0.5638012398168067,-0.04663872958621714,0.10056323602199514,0.3481492230471601,0.09522103716113568,0.028717669858768717
1.356,-0.5551555250329211,-0.0513627422854538,0.08958270072397007,0.33302206124458683,0.05994831355310481,0.04712574839751645
1.358,-0.529650280383147,-0.06532839939805622,0.08866270612760095,0.3298426902367429,0.05325856387259776,0.0715525476975737
1.36,-0.5335936135151994,-0.06978457668069725,0.09867872073019161,0.36318943338307663,0.08673091914232889,0.04917170114575309
1.362,-0.5369072451868373,-0.07613019802578376,0.10668528184775498,0.37391656975659915,0.10911781995811855,0.01427702451366574
1.364,-0.555080692225492,-0.04912786733873082,0.10040325800469169,0.3652078775038847,0.11341928037134258,-0.02137414822350534
1.366,-0.5562873350684099,-0.04518293769399083,0.10330572325162754,0.37506430637532434,0.11154970325230534,-0.027394836829021628
1.368,-0.5545960184240829,-0.05169065680876073,0.07920382289042234,0.3778870400612812,0.09915655448432219,0.0019223003045207158
1.37,-0.5401718063219434,-0.05645280987436455,0.06732610658108772,0.3561440980155916,0.06623253025356961,0.022489021289505386
1.372,-0.5451104111728582,-0.04941682773176901,0.04960316030597133,0.3439625668615271,0.05349096943321529,0.02651472929677281
1.374,-0.5428098245883489,-0.0591856925963967,0.04240644348513784,0.31080429974914314,0.05434548271183202,0.00924926127398923
1.376,-0.5354241727218622,-0.07778448555132544,0.0683677529976248,0.31935853247823215,0.07596788758180358,-0.015304262746364192
1.378,-0.5153573664048181,-0.0783030920321071,0.08520591542652008,0.32158056645763256,0.09962388443054018,-0.03371711353215487
1.38,-0.4940976953306814,-0.07386158817265621,0.10248605576012312,0.30814416356149416,0.11247101682949995,-0.05729055712583852
1.382,-0.4736875668553294,-0.07735844147630794,0.1199161854479849,0.2877072175613254,0.14635239149805684,-0.08296413169183454
1.384,-0.48233653150061195,-0.06874491904874667,0.09636529286441371,0.27401330585859424,0.1332101265153361,-0.07076719596430155
1.386,-0.48380751655668813,-0.08210412045149838,0.0834738868222121,0.2595698459168962,0.13518194634397723,-0.06393202088853034
1.388,-0.49662936189295154,-0.09242714242357787,0.07814595518483461,0.2415031653520476,0.15402930157741324,-0.07233375505586574
1.39,-0.4977684957407904,-0.10779522439664255,0.06342783070246026,0.2201541534779713,0.15412714119554632,-0.07728856573417539
1.392,-0.4942498803173731,-0.12531670880134113,0.0896606665815693,0.21192911428722788,0.12496388562172525,-0.05231880683914876
1.394,-0.49160981871685927,-0.1410385027817622,0.09853180359841111,0.2136344889475668,0.11577157940474252,-0.02989882327549029
1.396,-0.49209867865417256,-0.15082936380650322,0.10110144879353557,0.19513081447381023,0.08986887414554758,-0.01676319234283349
1.398,-0.5003106726121833,-0.16163170748005415,0.0957714575491689,0.16988910247363795,0.05141414643022965,0.003958840383278089
1.4,-0.5129959932503789,-0.1453779466767646,0.10677712149858053,0.15361193724532027,0.08899693533094433,-0.02692824197164051
1.402,-0.5059887847406284,-0.1508706339121326,0.11690700737234656,0.1530493224903669,0.0947813639992209,-0.046079107825110634
1.404,-0.5061291824438963,-0.15270724744489517,0.11668433207137185,0.1520004804701657,0.10781643110571355,-0.05729738977128627
1.406,-0.5073176144432902,-0.15306723372472447,0.1205912604128501,0.14931759702039313,0.12063564420548527,-0.07011376793236475
1.408,-0.4961745001385467,-0.1620374118819884,0.11564647155741549,0.1791501684910473,0.1317119129924695,-0.04432908957057875
1.41,-0.4900040059599789,-0.17318261996221615,0.10850280814742916,0.17269934419431215,0.1205343028340605,-0.02978009166859706
1.412,-0.4778794142526006,-0.1668737990241012,0.08569518520758321,0.1570598606572097,0.1324014469787084,-0.030804758981175386
1.414,-0.46717819498205143,-0.16865670306838518,0.08391598734762944,0.16171295028004512,0.1398160173241427,-0.030996687952144206
1.416,-0.473947492366602,-0.1678968434219329,0.10815671768033527,0.18284828560143326,0.15109669474814932,-0.013711765078576292
1.418,-0.48047097581978027,-0.16817093179709372,0.11431416841100814,0.18901101960352087,0.14031243170306015,0.013111290927681669
1.42,-0.48906770844705244,-0.16690098029169867,0.1284579481964505,0.17729473161025075,0.10667626717326972,0.028024321707504594
1.422,-0.49644454072222977,-0.16727892381863568,0.1376353531189841,0.17733093743690173,0.08865026218946315,0.041397384225083614
1.424,-0.5068612844651326,-0.15190824786803242,0.1596230820003954,0.1808619170841487,0.11318796018054757,0.014604139869066364
1.426,-0.5153567722705447,-0.14485327366249123,0.1728036907742705,0.1896446539995591,0.13637639508652455,0.015201697830109696
1.428,-0.5245023335046637,-0.14503056217976024,0.18737856643797246,0.1973978445011842,0.14760372801310537,0.01269451183250266
1.43,-0.53226052306344,-0.13590571154983078,0.19612898449355118,0.206119348134019,0.17958758008064216,-0.009028770838153793
1.432,-0.5331336252681369,-0.11447286512975766,0.18364605704498543,0.16506834541537688,0.18003822912849968,-0.04545163186488557
1.434,-0.5456463002127991,-0.1050425143195576,0.1742351759614377,0.14660158940655663,0.17250189044851374,-0.05414409232963433
1.436,-0.5504991351359572,-0.0949080596608845,0.17565667262522455,0.13402973028944712,0.13872672129921146,-0.03746876645532511
1.438,-0.5538070491667572,-0.09228368510111266,0.17220692256956605,0.1300929832087973,0.14574529733825867,-0.041878527091051325
1.44,-0.5712797977499823,-0.10366973814065501,0.17180128032688372,0.14267780266325025,0.09062594680153442,-0.07199178497123301
1.442,-0.5192035474535087,-0.1474808365463107,0.22748613582133673,0.30058877092503505,0.2808534223831396,-0.04648066141167088
1.444,-0.4934178549316661,-0.18988423447440259,0.20501146032603196,0.36286754169816027,0.39691783471956293,-0.030792947311243275
1.446,-0.4291556515606719,-0.28941226272894083,0.14956763993490785,0.35351356397892936,0.3354728666181759,0.007162542311728897
1.448,-0.3213045101590823,-0.43286519756343433,0.16160678773958434,0.4554550348996454,0.33126370768637536,0.07083310675939446
1.45,-0.192980256070227,-0.5739742248497446,0.14562254997794016,0.5485763360472768,0.3786077858328803,0.1707206324011779
1.452,-0.0786422361294989,-0.649374913105642,0.0634963410221198,0.48704283626594486,0.38825228095879144,0.14728236882406914
1.454,-0.014033234287361794,-0.7516947170992977,0.055127059043130935,0.49211540357754374,0.4003093797192674,0.10973308729937742
1.456,0.04318718212020727,-0.9194710046448445,0.1357360990103333,0.6216309706584019,0.35751081501630666,0.18435781704334014
1.458,0.09989399086772095,-1.0805637608660537,0.202913609151054,0.717799483265667,0.3121088745534017,0.23713425366907648
1.46,0.19363601161139446,-1.2052000850861073,0.30026187487539824,0.8376507170838692,0.3035078090830992,0.2576487697052942
1.462,0.316328624456151,-1.2948955162724827,0.44125360294092825,0.9842582376499954,0.24545441398375428,0.31852234599258633
1.464,0.3912177333041462,-1.3352788223442171,0.5766709949119789,1.060978899168696,0.13476890191536903,0.346129972185169
1.466,0.3872314280018026,-1.2511358476786356,0.6161579588808105,1.0050568638244812,0.07579290921796597,0.2973160422785973
1.468,0.34134235596246804,-1.0476500461408151,0.5876672085846292,0.8445790014003081,0.15577872837790524,0.178438028061731
1.47,0.26247706837026985,-0.8493508843519524,0.5470789363274245,0.729143454961786,0.2775063581884093,0.11096131305622661
1.472,0.17937445839114569,-0.7441644573843387,0.5453092897925651,0.6760034751854066,0.25109760839818374,0.10967161359625
1.474,0.08155418713911937,-0.6694573275733625,0.5888861966555731,0.6699402262776115,0.1787536057579789,0.1069856977071619
1.476,-0.022803443320688545,-0.6076151863581172,0.6681650591424387,0.6699733423640543,0.1687330153518593,0.016678103273262076
1.478,-0.17236891472400417,-0.5345430206329058,0.709189680403119,0.638251454651452,0.17668208156617943,-0.09162173547416487
1.48,-0.34658224190815917,-0.42272842492919543,0.7050330279037779,0.5823683850326767,0.19186196641323314,-0.14512729734545318
1.482,-0.5312444143332471,-0.33209495338996364,0.7551710345255839,0.6056096427724782,0.1773698369560565,-0.14600441756978272
1.484,-0.7210848889221799,-0.2817441995164161,0.862709549346173,0.6451483196199638,0.08336246784667406,-0.16546569030341632
1.486,-0.8881346846916945,-0.1796685914636289,0.9165357564120006,0.5488563118700069,-0.05375017838087897,-0.3115115040259962
1.488,-0.998692913866516,-0.10126307642352105,1.0357436184408393,0.559267799667544,-0.08921146709020338,-0.38554684635796727
1.49,-1.0569530743462123,-0.10818711914959084,1.2468370481613495,0.7216607055979203,-0.13766942597047468,-0.30102351016199125
1.492,-1.1097859868362197,-0.0374947060504972,1.3176238232732578,0.6927117158187482,-0.2545899425568775,-0.22509267174973704
1.494,-1.1612884689547778,0.1978913730200315,1.2906651885977092,0.5222698507226221,-0.22982375988199377,-0.23841146918360642
1.496,-1.1247094412515872,0.4324601272850471,1.2624776198183316,0.45656115778540474,-0.03872622489192926,-0.1846616739727434
1.498,-1.0953375599666628,0.5890388389064951,1.2308663794773467,0.3770181252351537,0.042671219740905895,-0.11628977758572356
1.5,-1.112262637763483,0.6843075912671558,1.2116137739908295,0.26757510488141706,0.036787882919529384,-0.11506219148096539
1.502,-1.146073111462925,0.7715773155206683,1.1953374772584862,0.17710463156354492,0.05061793929224233,-0.0995738392602094
1.504,-1.0989345090424387,0.8345444900214852,1.1446779934681053,0.1550499111338844,0.06453132725731163,0.024449628289604286
1.506,-1.0358853173590477,0.8529821983604512,1.1136214004469678,0.20755057659992934,0.09206721572143756,0.16217661616097725
1.508,-1.0263055162036836,0.8727618063645838,1.1215526847198982,0.23121709972869933,0.11169408802084203,0.17015079209098688
1.51,-1.0249097643480747,0.9303304339982769,1.1118667901124375,0.17286243606547164,0.16967187133128242,0.12937711115189904
1.512,-0.9984530881688355,0.9529515071817121,1.0458253560853583,0.1446133532258425,0.23623381198489105,0.13983599306853378
1.514,-0.9530071955684786,0.8729539265033108,0.9859497585532505,0.22960145735403353,0.24101230586354921,0.21792110800281164
1.516,-0.8920408229328765,0.7789392648338483,0.8610638372139146,0.2708764001053953,0.20935615685657585,0.230929574135127
1.518,-0.823701115022207,0.7120125587889744,0.6617350690709677,0.23463336090675216,0.2408647955787361,0.17261956303290754
1.52,-0.7709027611710888,0.6349157383533554,0.429354747559067,0.2117425353544051,0.2914609190887357,0.12690893508796322
1.522,-0.7325678952696187,0.5499804061444757,0.22654207497092957,0.2006513831037449,0.3390673673221377,0.11935067022021645
1.524,-0.706578458660187,0.4663990618476028,0.08476378388819425,0.18893087434489383,0.34026372684504946,0.10242913246275671
1.526,-0.6471806816813495,0.38176434934382014,0.0030720314946581,0.17677696933289236,0.27754879489638334,0.0702614103362547
1.528,-0.5955755221970901,0.31934205190874754,-0.007185025110536151,0.16954543019270854,0.285332760040752,0.02724648359273771
1.53,-0.5805701300758376,0.255216374650703,0.034486125324170655,0.24003167942803746,0.39163901264272755,-0.01391017200679517
1.532,-0.5680778890041567,0.15733090143611633,0.07136189113936509,0.3324279569746221,0.382437902387871,0.07904340047653242
1.534,-0.5204654665422742,0.07462893436353663,0.06321333051127331,0.35950944327961554,0.3277184858060627,0.1909851502577945
1.536,-0.5169308961092103,0.05195805431749701,0.018503238825168838,0.2884091434470057,0.34998584489132534,0.15048175026690017
1.538,-0.5327593211409459,0.0409632537287553,-0.026177793302428618,0.18196979359823454,0.32368113061138215,0.10538037668766387
1.54,-0.534034778051119,0.025177601788144197,0.01401131777619471,0.14534681157176613,0.30210660226817443,0.1070330255338461
1.542,-0.5486185601313552,0.023851524741565083,0.08149355656826966,0.15452538297706842,0.34948044427673663,0.06091548116427394
1.544,-0.5696772293468114,0.018473769726881546,0.12037140574544035,0.13922898474230577,0.3314591908524175,0.03502067647426813
1.546,-0.571188867738673,-0.03819859079391978,0.1661498221858943,0.2029105088100626,0.29455173214529107,0.07634724032206937
1.548,-0.576940778588756,-0.10954576708599441,0.230387817009764,0.22513419430711892,0.296422295772673,0.04852429632542706
1.55,-0.5773753400363272,-0.15078269567984748,0.22923648083308892,0.1492134193128524,0.30797805233803643,-0.01965569820306454
1.552,-0.5629881680838554,-0.2177220821808289,0.22542654291994418,0.14361503069153936,0.21767401128962127,0.04951063717554776
1.554,-0.5356411097003975,-0.29969222038453736,0.2678555536103401,0.23649477247615774,0.20119411838588835,0.1500498201061417
1.556,-0.5499351106860898,-0.3083507755298793,0.26375581317132907,0.242978029417778,0.2732136639864228,0.1251631624829448
1.558,-0.5525174096939576,-0.31255291732946283,0.24052949756250933,0.17771915273813618,0.2275276791883202,0.11628607864119177
1.56,-0.5563646684905658,-0.30658015385927145,0.21910728476130634,0.1483886862390849,0.20136112736496314,0.11376315313352221
1.562,-0.5638857260828796,-0.2944804409586997,0.19606600124641063,0.1239930266103256,0.17217016827010084,0.1070836178141286
1.564,-0.5680132016521924,-0.288995942612813,0.17631386029805787,0.08930078460541138,0.15436051001541023,0.09745371709343807
1.566,-0.5626144883131808,-0.2780581483237599,0.19250276691822787,0.10186632508103381,0.19086640725907122,0.07292319224952873
1.568,-0.5629866273582177,-0.25693540792369574,0.2116485939591932,0.12817534176156525,0.20082189324121458,0.06627226504626149
1.57,-0.5653634254136645,-0.24395218428201165,0.21748683062376356,0.13013840802349463,0.19953786598137827,0.03227365679445426
1.572,-0.5791291300205738,-0.24110900141118075,0.22723923458668396,0.11935663675827275,0.19603513667068098,-0.0035430752761009443
1.574,-0.5776943224751033,-0.2599436145963052,0.22267679153005043,0.1190166898282584,0.19718168562865354,0.010260903355287131
1.576,-0.5771495480121617,-0.27529084459380865,0.22134833576208598,0.1293272858318953,0.19824428955375362,0.03047448292363184
1.578,-0.5862048363803214,-0.2797211161771272,0.21691256846802598,0.13075110099243226,0.204378691791367,0.03970843905510667
1.58,-0.5828137332650919,-0.277821002624786,0.20639846797293612,0.12657495853805042,0.20214389044488631,0.04818260273951865
1.582,-0.5731314597937508,-0.25472902760025096,0.22885311939653072,0.1481817213593781,0.2217416896497844,0.05049455476928638
1.584,-0.5731930089996751,-0.24401962586003265,0.25014501929235394,0.15460161993099758,0.22775096443190923,0.05913602063945613
1.586,-0.5710446164219283,-0.24298592234111066,0.2600533855996141,0.15540078136557375,0.19491840708419295,0.09339445026556624
1.588,-0.5698058402588545,-0.2425404322401545,0.2729250480365351,0.16664045957359888,0.1962675412715374,0.0985113890692123
1.59,-0.5848775180290305,-0.2560092644482487,0.27108957952237567,0.1794875444578622,0.14553329894873268,0.10498985624310295
1.592,-0.5874285742703693,-0.25152340189059685,0.2805990641462737,0.17501527553294294,0.12270491517885393,0.10662730451411133
1.594,-0.5897042945029896,-0.25544980522868976,0.2894446827703788,0.16236513935261634,0.10372633583159015,0.11861470641339106
1.596,-0.5938247097748998,-0.2676712229607803,0.3017559963127564,0.17861874364972902,0.09328283780359325,0.12935128856942096
1.598,-0.5821520618971179,-0.26720905997126027,0.3117357373912442,0.22941991686403468,0.07235940465881614,0.17499570952809204
1.6,-0.5676387463020004,-0.25125283875732385,0.3157745458037509,0.26005982527875876,0.08380723201347283,0.188788538530091
1.602,-0.5642881888503168,-0.2439485421548247,0.3050396233162327,0.270349467066737,0.09553200099350197,0.1994627961316821
1.604,-0.5742973671299326,-0.2478802841211766,0.2854474286726773,0.27289294003960307,0.08244934478200866,0.21152731664090874
1.606,-0.5873652282583192,-0.22209755547865226,0.27576472238080385,0.291102024025274,0.08555061432381433,0.16943311024672364
1.608,-0.5907837056503279,-0.19871420918593113,0.2854638846502003,0.3068446033930825,0.08367311182682004,0.13203111903009915
1.61,-0.5872163067166523,-0.16794701259830264,0.30627869949615955,0.33790370149941645,0.08084211008115104,0.12620004291024495
1.612,-0.5573343144939815,-0.15308925261418194,0.32680529656387325,0.37563923780979586,0.061616190628257836,0.12032632575067549
1.614,-0.5618570189993768,-0.18442029499450308,0.30451904666600427,0.37665152461574036,0.04459005495301437,0.148341285656746
1.616,-0.5584019089091936,-0.20527640547270465,0.2892919192404963,0.36264535230569966,0.02689911224263498,0.14393845791603568
1.618,-0.549551362783255,-0.22304495521555648,0.28088041172819966,0.3349348286972636,-0.053534143636648115,0.185977888187213
1.62,-0.5465345985553138,-0.22584356709336498,0.28787336976498484,0.3337360460346913,-0.0723819430515311,0.19242755677416204
1.622,-0.5561991019549254,-0.20931852556454666,0.2859505205331108,0.3308773136422557,-0.07801487997005994,0.1827911387409258
1.624,-0.564696246397338,-0.21345438825067653,0.30047587247244173,0.3267769764591486,-0.05764818263857288,0.19043773226067268
1.626,-0.5737899745688628,-0.213285993656805,0.3122859133600006,0.338386385499925,-0.03414789370041274,0.17867147427574412
1.628,-0.5823151646408139,-0.2046915571131885,0.30709397115363934,0.3515693263020676,-0.0013794568756670116,0.1745927382847259
1.63,-0.5794536380607289,-0.2229618978833122,0.3322840863719266,0.3464648744685559,-0.002740126951392367,0.1630768406842354
1.632,-0.5758747076685806,-0.23535546993851522,0.35262746361713576,0.3712378807449361,-0.0021822958833316967,0.1561996699102308
1.634,-0.5754493213502836,-0.2528259556902161,0.36667374905048644,0.373704778729879,0.00037055541558839747,0.14247831721308515
1.636,-0.5799525336114123,-0.26256420553916526,0.37984031394248224,0.37991138304244637,-0.004533901425517971,0.12741980403084593
1.638,-0.571696354503161,-0.28708505555334823,0.369595739529608,0.35832099427436415,-0.007924223973808419,0.13461276858136462
1.64,-0.5721200347475168,-0.3102862621326869,0.37130467473546536,0.3536914701015332,-0.0028863620505707598,0.15180867160879444
1.642,-0.5757298489613629,-0.3321666251355082,0.3686983510737109,0.30074712307890866,-0.016279185280467536,0.14907316163003784
1.644,-0.5712820426776902,-0.34367891429443925,0.35574342872543674,0.28419183034374335,-0.021143961976399048,0.1645838959700544
1.646,-0.5664516066384518,-0.3627107836052421,0.38613978332250826,0.3045645753340232,-0.03894004449975243,0.16752166372946692
1.648,-0.5611763855634512,-0.35562058837165744,0.40426721014010886,0.3177780847341363,-0.04184870349817476,0.16722843549877495
1.65,-0.5678864608703241,-0.3722291412587976,0.42420285665697927,0.324613491453485,-0.0494105972076302,0.1537380218661205
1.652,-0.5664461386912122,-0.38893896921593796,0.435389128115205,0.32780209891633927,-0.05758293409472837,0.14736446808794995
1.654,-0.5657425564678915,-0.4200439319463967,0.43116862770223563,0.31315963521843004,-0.08205123295231086,0.15926189028421908
1.656,-0.5631471802573706,-0.45377861793617785,0.4077562040301872,0.24699513671728884,-0.10828510880843162,0.16512206579725197
1.658,-0.5634265064179221,-0.44296362867990163,0.3902441226414342,0.20771128327220081,-0.1451821871319326,0.14726208494424092
1.66,-0.570261754316031,-0.457180774202638,0.3958774281954195,0.18404508529000968,-0.16980320011753136,0.15560140542290793
1.662,-0.5498395880034991,-0.47979284324726407,0.41373076017016663,0.20984861424275997,-0.14580689830366286,0.16307953034003478
1.664,-0.5473836767539444,-0.4934868104837385,0.420432098015473,0.2353959903312489,-0.11383108872968263,0.16478897814383292
1.666,-0.5340908432208584,-0.4892633952467315,0.42542238452314196,0.21533540201716211,-0.13975726050648185,0.15371515635739766
1.668,-0.5270616461379087,-0.4953547254298922,0.4347962754117515,0.22740219472251952,-0.12586785610090154,0.1444576429980516
1.67,-0.5449788068779559,-0.523946338495589,0.4580700794685317,0.2392167953108621,-0.1360726602921415,0.15488636698880198
1.672,-0.5482039705615901,-0.5313100829695901,0.4693721790375593,0.2392953233514478,-0.13657865675835723,0.15739925481319683
1.674,-0.5438172884894997,-0.5481454098418905,0.48827838224624065,0.24436915989914287,-0.14371800535785234,0.15079073566609208
1.676,-0.5490384104339188,-0.5501489330363375,0.506028759568883,0.24026719421323464,-0.1303882075444237,0.13414792978445886
1.678,-0.5478312138005456,-0.553342650551682,0.5028630184448226,0.22215071790772786,-0.11196098318131785,0.1241890731844389
1.68,-0.5532162129589501,-0.5587438012923008,0.503921386808282,0.2088926764219417,-0.1054632077516002,0.11745765493026208
1.682,-0.563363293985299,-0.5549365544999977,0.5031817180705733,0.2108461704310348,-0.08375934826870086,0.1167014912506074
1.684,-0.5654938109056084,-0.547743511237947,0.5101533518765003,0.20127450798775723,-0.07113507572039114,0.1033918975849596
1.686,-0.5600640080690772,-0.538499428546582,0.5129020341539854,0.20293651335850502,-0.09389629562084967,0.13169963720503802
1.688,-0.5744188331413325,-0.5181905504489812,0.5150089650430572,0.18471681843597337,-0.12433484014536911,0.13854185585582246
1.69,-0.5811878300407842,-0.5061257243146464,0.4984369722183483,0.1776475944000744,-0.18752789107530782,0.13084514627729293
1.692,-0.5963463678582073,-0.47723698577338836,0.5354036921039732,0.17441429677517134,-0.2032585762712471,0.12356702625841105
1.694,-0.5935610748834473,-0.48198236838670716,0.5791472776688037,0.22281395434052728,-0.1446981970762227,0.13134448063456775
1.696,-0.5936127812584614,-0.47652083952021845,0.6007853690512874,0.23407266770812102,-0.14675993611395405,0.1629434001864714
1.698,-0.593568246152605,-0.46530114069845374,0.6161355252803167,0.23897099191031626,-0.15388857580021986,0.16928859436882665
1.7,-0.5979752147267717,-0.4520552161843297,0.6321700101292617,0.24498679240349608,-0.15689234740644356,0.17331790649703346
1.702,-0.6105968462314697,-0.4382123973668933,0.6477393634999857,0.25347460959849505,-0.12207524593385116,0.19109995817316755
1.704,-0.628597268258105,-0.4343473156337575,0.6709418705309479,0.290374373942215,-0.08862869736713103,0.18701162186063708
1.706,-0.6421186195927451,-0.4215592429972603,0.6827950397288529,0.29477185183581206,-0.09102384791730375,0.18849524806293433
1.708,-0.6587335102942903,-0.4042061303900203,0.6917134642884724,0.29161638910297516,-0.07528170312858595,0.17289201939772414
1.71,-0.6594531398051593,-0.38385978267210574,0.6945189958338666,0.2950379899125276,-0.06835245660384615,0.15559572814573036
1.712,-0.6818783238523077,-0.3624749900170823,0.7005903334507486,0.3076789447980116,-0.06561324220860013,0.15356456465223245
1.714,-0.6844064997111728,-0.3475353008129837,0.7114162227029092,0.3041233171872515,-0.08377019098300525,0.1605477760658312
1.716,-0.6787525028975703,-0.34002196035153015,0.7102175074085143,0.32079638893899554,-0.0585171624769102,0.16998119848739549
1.718,-0.6804613876492404,-0.34273531958059444,0.7171504963430384,0.31793007859202094,-0.08219503986808407,0.1736679214585813
1.72,-0.6800362124786481,-0.3269341941636201,0.7164793448447238,0.32777382852558895,-0.05900036429207583,0.17254674529686254
1.722,-0.703523324788578,-0.30937436230245324,0.6943059308725313,0.318173177895446,-0.08106139525200813,0.1755445063804993
1.724,-0.735062637032644,-0.27861714074072874,0.6666088562214589,0.3026667504387221,-0.0852665293301134,0.17908598213760143
1.726,-0.7381401367650062,-0.2588208909544235,0.6612420849190027,0.30095042784274006,-0.08794067451358904,0.17502177334516422
1.728,-0.7411575616574518,-0.24677594234736297,0.6536195574185835,0.31458888225476195,-0.07397790537175022,0.17285901851510835
1.73,-0.7342788914556638,-0.2394165502687535,0.6464674146766637,0.32373872124549136,-0.06901495859844652,0.1664739414294017
1.732,-0.7243874295991631,-0.23489031184652806,0.6293967129159265,0.3283538402682372,-0.047027999311658755,0.15119868931255426
1.734,-0.7046366844539345,-0.238299940106541,0.6268851132571911,0.3503596285238178,-0.029986201668400672,0.14759594602963044
1.736,-0.700656692119167,-0.22208765144424938,0.6161585352360386,0.3495698363312057,-0.0323116228058749,0.16851387364313766
1.738,-0.7155866295889824,-0.21532746770697148,0.6141535994071166,0.36366891379377125,-0.03274853802427685,0.17802663315080988
1.74,-0.7147791151787192,-0.20822406338490074,0.6138460167303295,0.36986201600347457,-0.007125315638717296,0.1821300144230396
1.742,-0.7227914131896934,-0.19630671733547572,0.575471623381562,0.3417598198930394,-0.013588211712439395,0.18635385218962952
1.744,-0.7224264628060965,-0.18103500402847386,0.5416870049419193,0.3225438808282655,-0.0153015346944699,0.19388268133515518
1.746,-0.724033144262199,-0.16988176819930761,0.5140450897896068,0.30804341385798334,-0.015751642465968534,0.20077558356287648
1.748,-0.7293089446122719,-0.16051103778864895,0.48141672025545384,0.3069954592003326,-0.024360441462326708,0.20114310946755484
1.75,-0.7315117664056184,-0.1555377157356858,0.4761459324209602,0.30096271524884055,-0.08000701140371043,0.2733208979298919
1.752,-0.7231232279586558,-0.12524120581045373,0.4819361756252923,0.3225621096414316,0.036716105090105845,0.1947921488649783
1.754,-0.7305247405981646,-0.09112723541969209,0.47172803383898837,0.298540303013922,0.05217680223118115,0.12744080349671574
1.756,-0.7433762223681739,-0.1031045153652996,0.4461216872115847,0.29520791923826684,-0.01159471882515627,0.19412576244323818
1.758,-0.756804188462863,-0.10286611986441611,0.42742462072100473,0.2747409382738736,-0.007365561612564252,0.20917089271799646
1.76,-0.7646401589706526,-0.10585646396991177,0.4187193364426488,0.2699764373046407,-0.005250125323616064,0.2096926996225795
1.762,-0.7724761294784422,-0.10884680807540749,0.4100140521642929,0.26521193633540757,-0.003134689034667817,0.21021450652716248
1.764,-0.779510230205156,-0.11137791596019618,0.40196342114435724,0.26149323222880155,-0.0014596434192305928,0.210199854637338
1.766,-0.764094515773579,-0.09427422971347053,0.40108863127013533,0.2377317896445134,0.03370562452485759,0.17841029174681633
1.768,-0.7513554063445733,-0.10374521456166831,0.3917796878662284,0.2210039056545006,0.026154718891438156,0.16510472350375635
1.77,-0.7420350015896566,-0.10740661607123772,0.37669352531528794,0.20800957218192137,0.0027474789031226693,0.16438147468336642
1.772,-0.7356432917971928,-0.11546461006117681,0.371447192218219,0.1962643755309818,-0.003717956248711918,0.16300939105771198
1.774,-0.7478128025240881,-0.11381089787457702,0.3602778918939604,0.1987951902532911,0.014988603204265817,0.1629856234568421
1.776,-0.7550816918477039,-0.10616937861425742,0.3684975052344672,0.19370892587950694,0.003922860703913777,0.15590151665309887
1.778,-0.7603578450204284,-0.10646071776951255,0.36855700920151013,0.20766196975485887,0.04055454633511652,0.1558744021683891
1.78,-0.7650630247012228,-0.10396993297434959,0.36823489498431033,0.21684269190363784,0.06556868791315458,0.17181165351394442
1.782,-0.7797180956806018,-0.11089468810940414,0.3515398060442838,0.1928011717043286,0.056519913106879184,0.17751979150198866
1.784,-0.7809635398106958,-0.10479530789144378,0.33846400444242586,0.1900660224523751,0.027089977957241457,0.19171152742548717
1.786,-0.7724828801115486,-0.11031748154161163,0.32749535304622096,0.18929831847217587,0.009602840610535058,0.2143534146639141
1.788,-0.7838980964755624,-0.11017332857739313,0.31263346247125023,0.16959992863128803,-0.026822266376312888,0.21393036328617634
1.79,-0.78014491263633,-0.09333102493381427,0.3185613327843256,0.1616346560498649,-0.009226842914879144,0.19129392120194438
1.792,-0.7811139787359547,-0.08997878966443744,0.3224684723732271,0.1714412419390765,0.006182850765123226,0.1956238773995216
1.794,-0.7777401233574409,-0.08472230330172602,0.3299115289493618,0.1663941842311705,0.011809278374596206,0.18380231682555848
1.796,-0.7745172688176536,-0.0854462049803805,0.337743450550603,0.14944523944470936,0.04421016240965942,0.15696913399371473
1.798,-0.7826554554773895,-0.07727197442761681,0.3318684037700507,0.13962577122694406,0.04404174522701164,0.15441632149963677
1.8,-0.7874109630218039,-0.08405157587945172,0.32947979336862115,0.1304342728330866,0.0004968237978908144,0.16156071139305586
1.802,-0.7869304340287778,-0.08989681735730623,0.3261373337649915,0.11822342181612497,-0.04718471988842379,0.15827678641471463
1.804,-0.7893713774873653,-0.08339127190830532,0.31605508810269,0.10307684316593428,-0.07360080652932369,0.1485922592126676
1.806,-0.7978380513565941,-0.0703423409218298,0.3148840567141362,0.09634546327764673,-0.03481313645653226,0.14205360428012484
1.808,-0.8087684376297553,-0.07544297786171833,0.3150926545038946,0.10177932846516434,-0.04606476737632849,0.13908743530813447
1.81,-0.8088342728627805,-0.07765648027704197,0.3157724019595385,0.08762859065592968,-0.056876675377516936,0.13527062144814878
1.812,-0.8248553217417683,-0.061913480273834844,0.3015518454739154,0.06735629807604186,-0.0703209695905957,0.13080688283052222
1.814,-0.8308582209682395,-0.0630937642249115,0.300447999073451,0.06750964782721701,-0.055249004188458004,0.09391538229431219
1.816,-0.8316367747202789,-0.060703032355647335,0.3019161440830888,0.08001728289127746,-0.012671530919357165,0.07542488712708419
1.818,-0.8336451858884583,-0.0628291370235866,0.29405440591986576,0.0733754619298016,-0.03667313206940452,0.08057053231392979
1.82,-0.8199597725550164,-0.07344826774587546,0.2966535307912648,0.07701515462527822,-0.03407072178058285,0.08878950374393836
1.822,-0.8152066491773416,-0.09077089168040695,0.3123408292349973,0.09142245675148657,-0.054261284820283015,0.08035789547240213
1.824,-0.8179080002207749,-0.09641308232075724,0.3196425565553141,0.09053964077580304,-0.0652805114352804,0.060867186172423184
1.826,-0.8363448572807917,-0.06826716130925684,0.3120907187499665,0.07119057676810699,-0.09454579271198463,0.04162699519582885
1.828,-0.8369918126593359,-0.06404411756015854,0.31448468053898654,0.06777996530394352,-0.1314529409752307,0.05018897538270651
1.83,-0.8336974997466609,-0.057259525454675185,0.32170348328911935,0.08419538781531519,-0.13293099679277418,0.06732065180121001
1.832,-0.8243462512549053,-0.052758280958555503,0.3271387088294515,0.07773457664199288,-0.1618764368784626,0.08306129629333836
1.834,-0.834687464488718,-0.03666572626291792,0.32799165829355414,0.08040358703522288,-0.16843117263031368,0.08147391084547131
1.836,-0.8373362255922127,-0.03719557861698354,0.33800893020590034,0.061740015931280964,-0.16545511939072025,0.061940601091731017
1.838,-0.8401342863489487,-0.0304758813167193,0.34769706126973293,0.08764294361890565,-0.14519783899192548,0.06367990670959264
1.84,-0.8413582979830947,-0.029616742980666032,0.35216060178932757,0.10084281965390779,-0.12540416881519528,0.06777547002056414
1.842,-0.8424390156405379,-0.022849748549623926,0.3570617427676157,0.09889312668445123,-0.11612841858655938,0.06552114759369379
1.844,-0.8429935239253352,-0.024207607176180125,0.36083683265296285,0.09166848065140364,-0.08586411100220043,0.06336421924249475
1.846,-0.8344395057729428,-0.018776526522693654,0.3680087679795481,0.102173802482458,-0.1035418761940811,0.08370724994133381
1.848,-0.8233882865741897,-0.02101047382597588,0.3651337078451752,0.10283973342718719,-0.10837251521079738,0.08612505887518147
1.85,-0.8245573020276037,-0.021520819238877317,0.36897050522321145,0.10101757396697349,-0.09373825536819913,0.07385711781332054
1.852,-0.8135766855284913,-0.025221577061487657,0.36568404219363565,0.0958903132057349,-0.09706994702450951,0.0641127694441117
1.854,-0.8263178335266889,-0.024435064271216035,0.3723443757009768,0.10844987947258308,-0.08427380845953476,0.05752784221645395
1.856,-0.8201409255388573,-0.026340654708576036,0.3679752134622141,0.11849781539664703,-0.08624806535945027,0.06927712195684142
1.858,-0.8168705753865773,-0.02198113313680882,0.3563771202660161,0.11007490066117985,-0.1031997396027144,0.07175857045844715
1.86,-0.8216075423043756,-0.01841940933947408,0.3376874567004032,0.09456895491142987,-0.13345250933950575,0.07979272212456845
1.862,-0.8236316399398587,-0.020193139143693577,0.3459673377167459,0.11041561693628571,-0.10025743409114901,0.08002708453265235
1.864,-0.8147446661119884,-0.028276355546178373,0.3498984270065796,0.12236934610985473,-0.09066799175143236,0.08539397962163113
1.866,-0.8127909750001973,-0.0328561469897252,0.34260328141879365,0.13345686670342644,-0.07517428400370853,0.09824621604489209
1.868,-0.8121717725306873,-0.03566634479697851,0.34053913430506083,0.14370597303471241,-0.05696233171811421,0.1092614219866178
1.87,-0.7989123242322026,-0.02925558501035776,0.3312467017253197,0.13255768709549082,-0.06563425229779052,0.10203703116307032
1.872,-0.8046739350587652,-0.02477610086029859,0.3338346835134468,0.0990412006936348,-0.10550673087774275,0.07988302169415132
1.874,-0.8056061338046908,-0.0021127931832719575,0.32123809203015125,0.05742136413277081,-0.12016101081938352,0.04200174722478914
1.876,-0.8077480008757933,0.011571594360532315,0.32875668607926933,0.035415554855399815,-0.14086269031209717,0.005902184086547553
1.878,-0.7944620901805259,-0.007452269983531464,0.34835941274842586,0.07667447949507923,-0.13284525215096063,0.029417348734876544
1.88,-0.789143003092979,-0.016748326125584148,0.34746301989056594,0.09772274768744063,-0.14262103792614667,0.06432297859496713
1.882,-0.7858961988217408,-0.02402835746991907,0.3543696669478127,0.09992814032768106,-0.17608322516912991,0.08416448872532761
1.884,-0.7812698081985894,-0.03343093929394953,0.35579347359378205,0.11438268671397463,-0.1941803914987964,0.10451147690854712
1.886,-0.7932131662684544,-0.019711256811660836,0.3651914839808894,0.09474562810891371,-0.18792507014794635,0.09352607210877863
1.888,-0.7946465169891562,-0.01867630890296734,0.37104565437782805,0.09375011474286074,-0.17041256051459994,0.09104393327808105
1.89,-0.7969332020555772,-0.023553074171433794,0.3789349103458558,0.09142594314805721,-0.16551046831029093,0.08256879653123302
1.892,-0.7978177563695967,-0.020381530517754674,0.38114816377696675,0.09090964711278342,-0.13771144285618114,0.05857507778152343
1.894,-0.7988757703071845,-0.02257342017517588,0.40424633480182287,0.07262299826705294,-0.12980006102506042,0.0328548701786006
1.896,-0.8054116964256508,-0.028209379782149407,0.40897846177702674,0.0717307043786595,-0.12777104483561044,0.03128264715665139
